time,x_r,y_r,theta_r,x,y,theta,v,omega,x_e,y_e,theta_e
0,1.4,0.0,1.5707963267948966,1.63,-0.69,1.33,-0.1856433317326432,0.15251396457143276,-0.22999999999999998,0.69,0.2407963267948965
0.0650169849395752,1.3999992698847694,0.0014297979271613171,1.5718176112061202,1.63,-0.69,1.33,-0.18564935595864138,0.1528309332414023,-0.23000073011523048,0.6914297979271613,0.2418176112061201
0.12901592254638672,1.3999971250898915,0.002837206379198677,1.5728229041672357,1.63,-0.69,1.33,-0.1856565911065538,0.15314292241271096,-0.2300028749101084,0.6928372063791987,0.24282290416723562
0.19350862503051758,1.399993532475034,0.00425547037065978,1.5738359531689072,1.63,-0.69,1.33,-0.18566519204315696,0.15345730191582332,-0.23000646752496579,0.6942554703706597,0.24383595316890716
0.2570064067840576,1.3999885915904424,0.005651850724243853,1.5748333739922882,1.63,-0.69,1.33,-0.18567494501453777,0.15376681480740256,-0.23001140840955747,0.6956518507242438,0.2448333739922881
0.3211090564727783,1.3999821908996017,0.007061527026835144,1.5758402960589768,1.63,-0.69,1.33,-0.18568608388680827,0.15407925891897234,-0.23001780910039815,0.6970615270268351,0.24584029605897673
0.38500237464904785,1.399974398625249,0.008466592813636658,1.576843929953957,1.63,-0.69,1.33,-0.18569847914164822,0.15439066527075931,-0.2300256013747508,0.6984665928136367,0.24684392995395688
0.44899439811706543,1.3999651808761369,0.00987382066096308,1.5778491143080342,1.63,-0.69,1.33,-0.185712187168072,0.1547025349178929,-0.23003481912386303,0.699873820660963,0.24784911430803414
0.5130167007446289,1.3999545432428149,0.01128170438370279,1.5788547742860375,1.63,-0.69,1.33,-0.1857271972071734,0.15501453401178375,-0.23004545675718502,0.7012817043837027,0.24885477428603742
0.5769824981689453,1.399942501025281,0.012688334133389425,1.5798595466823837,1.63,-0.69,1.33,-0.18574348810131547,0.15532623932342346,-0.23005749897471883,0.7026883341333894,0.24985954668238364
0.6409800052642822,1.3999290384505303,0.014095648370089383,1.5808648171730777,1.63,-0.69,1.33,-0.1857610815482355,0.15563808041950994,-0.2300709615494696,0.7040956483700893,0.2508648171730776
0.704972505569458,1.3999141623705949,0.015502838263853208,1.5818700090172955,1.63,-0.69,1.33,-0.1857799682467231,0.15594987806472133,-0.23008583762940504,0.7055028382638532,0.2518700090172954
0.7689685821533203,1.3998978708526688,0.01691009113412432,1.5828752570375677,1.63,-0.69,1.33,-0.1858001506674817,0.15626167376483577,-0.23010212914733108,0.7069100911341243,0.25287525703756764
0.8329598903656006,1.3998801660770401,0.018317222063358864,1.5838804301564342,1.63,-0.69,1.33,-0.18582162612229625,0.15657342654934175,-0.23011983392295976,0.7083172220633588,0.25388043015643413
0.8969507217407227,1.399861047048147,0.019724324000212356,1.5848855957851602,1.63,-0.69,1.33,-0.18584439587054255,0.15688515701316194,-0.23013895295185294,0.7097243240002123,0.2548855957851601
0.9609570503234863,1.399840508514597,0.021131746771011574,1.5858910048434545,1.63,-0.69,1.33,-0.18586846602902243,0.15719694265149664,-0.23015949148540282,0.7111317467710115,0.2558910048434544
1.024949550628662,1.3998185598518507,0.02253884412054676,1.5868961966876725,1.63,-0.69,1.33,-0.18589382559594664,0.1575086402991415,-0.23018144014814923,0.7125388441205467,0.2568961966876724
1.0889534950256348,1.3997951924930296,0.023946170328502377,1.587901568295264,1.63,-0.69,1.33,-0.18592048448850795,0.15782037274001356,-0.23020480750697025,0.7139461703285023,0.2579015682952639
1.1529502868652344,1.3997704131089517,0.025353315065182746,1.588906827550747,1.63,-0.69,1.33,-0.1859484350641247,0.1581320490816617,-0.23022958689104822,0.7153533150651827,0.2589068275507469
1.2169482707977295,1.3997442186912632,0.026760460391872215,1.5899121055315812,1.63,-0.69,1.33,-0.1859776807582035,0.1584437096520775,-0.2302557813087367,0.7167604603918721,0.2599121055315812
1.2809228897094727,1.3997166200527187,0.028167064955240004,1.590917016495528,1.63,-0.69,1.33,-0.1860082096464243,0.15875523455827123,-0.2302833799472812,0.71816706495524,0.2609170164955279
1.3449244499206543,1.3996875954005183,0.02957423341212502,1.5919223506524167,1.63,-0.69,1.33,-0.18604004581276573,0.15906686845055362,-0.23031240459948155,0.719574233412125,0.26192235065241665
1.408919095993042,1.3996571594534963,0.030981219965812042,1.5929275762022672,1.63,-0.69,1.33,-0.18607317299201026,0.15937844615606614,-0.23034284054650356,0.720981219965812,0.26292757620226714
1.4729135036468506,1.3996253093045536,0.03238816997195279,1.5939327980070472,1.63,-0.69,1.33,-0.18610759438939248,0.159689999866539,-0.23037469069544625,0.7223881699719528,0.26393279800704716
1.5369112491607666,1.3995920431032052,0.03379516063278178,1.5949380722428115,1.63,-0.69,1.33,-0.1861433119877752,0.16000154667640848,-0.23040795689679472,0.7237951606327817,0.2649380722428114
1.6009044647216797,1.3995573650122928,0.03520201755365249,1.5959432753222402,1.63,-0.69,1.33,-0.1861803213238199,0.16031304797030058,-0.23044263498770712,0.7252020175536524,0.26594327532224016
1.6648993492126465,1.39952127180251,0.03660887559437654,1.596948504617161,1.63,-0.69,1.33,-0.18621862585834587,0.16062453360946524,-0.23047872819748982,0.7266088755943765,0.2669485046171609
1.7288947105407715,1.399483764111542,0.03801570712467992,1.5979537414022222,1.63,-0.69,1.33,-0.1862582249042066,0.16093599747561718,-0.23051623588845782,0.7280157071246799,0.26795374140222217
1.7928907871246338,1.3994448417980383,0.03942251596313457,1.5989589894224945,1.63,-0.69,1.33,-0.18629911860507806,0.16124744041372047,-0.2305551582019616,0.7294225159631346,0.2689589894224944
1.8568861484527588,1.3994045057713642,0.04082926924160585,1.5999642262075557,1.63,-0.7,1.32,-0.1864010144756047,0.1639530958615587,-0.23059549422863568,0.7408292692416059,0.2799642262075557
1.9208788871765137,1.399362757385108,0.04223592361423282,1.600969421796844,1.63,-0.71,1.32,-0.18644470689345152,0.16602358430560443,-0.23063724261489194,0.7522359236142327,0.2809694217968439
1.9848806858062744,1.3993195888465104,0.04364273445182698,1.6019747596988028,1.63,-0.72,1.31,-0.1865519457953312,0.16872684250243195,-0.23068041115348947,0.763642734451827,0.2919747596988027
2.048868417739868,1.3992750159637757,0.045049191996913214,1.6029798766416152,1.63,-0.72,1.31,-0.18659843443678084,0.16903777440168782,-0.2307249840362242,0.7650491919969132,0.2929798766416152
2.112865447998047,1.399229022664271,0.046455808398834196,1.6039851396421685,1.63,-0.73,1.31,-0.18664622365411918,0.17110801610798496,-0.23077097733572893,0.7764558083988342,0.29398513964216844
2.1769094467163086,1.3991815800565879,0.047863410141254184,1.6049911404215675,1.64,-0.74,1.3,-0.1957603293912319,0.17380872591829089,-0.24081841994341202,0.7878634101412542,0.3049911404215675
2.2409145832061768,1.3991327515017251,0.04927010934848846,1.6059965307545103,1.64,-0.75,1.29,-0.19587821917938564,0.17650683896627214,-0.2408672484982748,0.7992701093484884,0.3159965307545103
2.3048553466796875,1.3990825599320451,0.0506753440441673,1.6070009099184768,1.64,-0.75,1.29,-0.19593026611449854,0.1768170319316928,-0.2409174400679548,0.8006753440441673,0.31700090991847674
2.368849754333496,1.3990309131137952,0.05208170650026877,1.608006131723257,1.64,-0.76,1.28,-0.19605345336483646,0.1795123612622686,-0.24096908688620466,0.8120817065002688,0.328006131723257
2.432842969894409,1.3989778536172524,0.05348799013297511,1.6090113348026858,1.64,-0.77,1.28,-0.19610833887283413,0.18158182987734034,-0.24102214638274755,0.8234879901329751,0.32901133480268574
2.4968385696411133,1.398923378491288,0.054894272110307084,1.6100165753328175,1.64,-0.78,1.27,-0.19623682300074152,0.18427433283139333,-0.2410766215087119,0.8348942721103071,0.3400165753328175
2.560833692550659,1.3988674901631435,0.05630048813879974,1.6110218083728085,1.64,-0.78,1.26,-0.1963690899079399,0.18520486704155556,-0.2411325098368564,0.8363004881387998,0.3510218083728085
2.6248247623443604,1.3988101919626212,0.057706558219099806,1.6120269777466048,1.65,-0.79,1.26,-0.20542826963020702,0.18727378697728217,-0.25118980803737867,0.8477065582190998,0.35202697774660474
2.6888248920440674,1.398751472040219,0.05911276905474925,1.6130322894330715,1.65,-0.8,1.25,-0.2055658145366683,0.18996061442570808,-0.2512485279597809,0.8591127690547493,0.36303228943307153
2.7528204917907715,1.3986913427738419,0.06051882062223977,1.6140375299632033,1.65,-0.8,1.25,-0.20562779147503496,0.19026996487378467,-0.251308657226158,0.8605188206222398,0.36403752996320327
2.8168270587921143,1.3986297894500521,0.061925051981427885,1.6150429427665678,1.65,-0.81,1.24,-0.2057706040434612,0.19295370138544285,-0.2513702105499478,0.8719250519814279,0.3750429427665678
2.880824327468872,1.3985668315645985,0.06333101647186731,1.6160482095121913,1.65,-0.82,1.23,-0.20591715789312043,0.19563445497679383,-0.2514331684354014,0.8833310164718673,0.3860482095121913
2.9448044300079346,1.3985024777977855,0.06473653986315954,1.6170532066127545,1.65,-0.82,1.22,-0.20606743317508244,0.1965528140638013,-0.25149752220221444,0.8847365398631595,0.39705320661275456
3.0088014602661133,1.3984366939295705,0.06614236971361626,1.6180584696133078,1.65,-0.83,1.22,-0.20613519769061375,0.19862058077043476,-0.2515633060704294,0.8961423697136162,0.3980584696133078
3.0728001594543457,1.3983694950952907,0.06754816938260645,1.619063758829353,1.66,-0.84,1.21,-0.21529071600397234,0.20129492201939314,-0.2616305049047092,0.9075481693826064,0.4090637588293531
3.136786937713623,1.3983008959717935,0.0689536389502342,1.6200688607918843,1.66,-0.84,1.2,-0.21544993660731085,0.2022067238484636,-0.2616991040282064,0.9089536389502342,0.4200688607918843
3.200784683227539,1.398230872121964,0.07035927973659009,1.6210741350276483,1.66,-0.85,1.2,-0.215521984021851,0.20427385085150912,-0.26176912787803586,0.92035927973659,0.42107413502764834
3.2647812366485596,1.398159436597109,0.07176482323850539,1.622079390538061,1.66,-0.85,1.2,-0.21559532205771803,0.20458164047516292,-0.26184056340289086,0.9217648232385054,0.4220793905380611
3.3287734985351562,1.398086593110735,0.07317019997251405,1.6230845786372088,1.66,-0.85,1.21,-0.21558066086632532,0.20428646149945892,-0.261913406889265,0.923170199972514,0.4130845786372088
3.392773151397705,1.3980123283354169,0.07457566508041867,1.624089882833535,1.66,-0.85,1.21,-0.21565638421273112,0.20459445516025604,-0.26198767166458303,0.9245756650804187,0.4140898828335351
3.4567644596099854,1.3979366606372847,0.07598087158145256,1.6250950559524016,1.66,-0.85,1.21,-0.21573338937386474,0.2049023685840849,-0.2620633393627152,0.9259808715814526,0.4150950559524016
3.520756721496582,1.397859579342551,0.07738602225380133,1.6261002440515493,1.66,-0.85,1.22,-0.21572380698400687,0.20460548222430708,-0.2621404206574489,0.9273860222538013,0.4061002440515493
3.5848119258880615,1.397781007744939,0.07879247671917942,1.6271064208492516,1.66,-0.86,1.22,-0.21580327246377204,0.20667317937713311,-0.26221899225506085,0.9387924767191794,0.40710642084925164
3.6488037109375,1.3977011009379838,0.08019745904171466,1.6281116014582586,1.65,-0.86,1.22,-0.2068839513814809,0.20698123888054312,-0.2522988990620161,0.9401974590417146,0.40811160145825864
3.7127957344055176,1.397619781605042,0.08160236556788623,1.629116785812336,1.65,-0.86,1.22,-0.2069659220000794,0.2072892588205282,-0.25238021839495794,0.9416023655678862,0.4091167858123361
3.7767398357391357,1.3975371126073846,0.08300613763460168,1.6301212174072865,1.65,-0.86,1.23,-0.20696244771266423,0.20699067763510082,-0.25246288739261535,0.9430061376346017,0.40012121740728657
3.8407349586486816,1.397452966008365,0.08441094593963332,1.6311264504472776,1.65,-0.86,1.23,-0.2070468009228456,0.20729889185107525,-0.2525470339916349,0.9444109459396333,0.40112645044727757
3.9047393798828125,1.3973673947583172,0.08581587304428892,1.6321318295450096,1.65,-0.86,1.23,-0.2071324580340329,0.20760710980462396,-0.25263260524168274,0.9458158730442889,0.4021318295450096
3.9687416553497314,1.3972804140072381,0.0872206663111516,1.633137174937109,1.65,-0.86,1.24,-0.20713414411666634,0.20730714539758982,-0.2527195859927618,0.9472206663111515,0.3931371749371091
4.032722234725952,1.3971920512014848,0.0886248952574099,1.6341421795278128,1.65,-0.87,1.24,-0.20722214760871682,0.20937471480063252,-0.2528079487985151,0.9586248952574099,0.39414217952781283
4.096721410751343,1.3971022508851223,0.09002944280469952,1.6351474762339988,1.65,-0.87,1.24,-0.2073114678419292,0.20968304056656714,-0.2528977491148776,0.9600294428046995,0.3951474762339988
4.160715103149414,1.397011046503153,0.09143377903250471,1.636152686803568,1.65,-0.87,1.25,-0.20731822966670366,0.20938139593756494,-0.2529889534968468,0.9614337790325047,0.38615268680356807
4.224705457687378,1.3969184353814679,0.09283794962940416,1.6371578449421533,1.65,-0.87,1.25,-0.2074099151527939,0.20968984869638282,-0.25308156461853204,0.9628379496294042,0.38715784494215333
4.288705348968506,1.396824398775565,0.09424223567637267,1.63816315288355,1.65,-0.87,1.25,-0.20750290539565763,0.2099983057475688,-0.25317560122443483,0.9642422356763727,0.3881631528835501
4.3526952266693115,1.3967289655219954,0.09564620678237302,1.6391683035319948,1.65,-0.87,1.25,-0.20759717188078602,0.21030667255424426,-0.2532710344780045,0.965646206782373,0.38916830353199483
4.416744232177734,1.3966320309758777,0.0970513784147078,1.6401743829578699,1.65,-0.88,1.26,-0.20761019289084803,0.21176317873644102,-0.2533679690241222,0.9770513784147078,0.38017438295786987
4.480660676956177,1.3965338877736009,0.09845354386690106,1.6411783801246675,1.65,-0.88,1.26,-0.2077067252111389,0.21207135603342542,-0.25346611222639903,0.9784535438669011,0.38117838012466754
4.5446929931640625,1.3964341551009594,0.09985815173269202,1.6421841973956226,1.65,-0.88,1.27,-0.20772372960178462,0.21176669357158737,-0.25356584489904055,0.9798581517326921,0.3721841973956226
4.608716249465942,1.3963330241110996,0.1012624598592758,1.6431898723539071,1.65,-0.88,1.27,-0.20782280033604772,0.21207554557425712,-0.2536669758889003,0.9812624598592758,0.3731898723539071
4.672677040100098,1.396230581631826,0.10266529557768135,1.6441945661037773,1.65,-0.88,1.27,-0.20792306423410925,0.21238405395621054,-0.253769418368174,0.9826652955776813,0.3741945661037773
4.736667156219482,1.3961266818457907,0.10406867078166214,1.6451997204972926,1.65,-0.88,1.28,-0.20794510008012357,0.21207762293079377,-0.2538733181542092,0.9840686707816622,0.36519972049729255
4.800665378570557,1.3960213580737222,0.10547211860013068,1.646205002223197,1.65,-0.89,1.28,-0.20804779716220123,0.2141457584695719,-0.2539786419262777,0.9954721186001307,0.3662050022231971
4.864633560180664,1.39591467392678,0.10687480112679064,1.6472098120702463,1.65,-0.89,1.28,-0.20815173560658257,0.2144544145555323,-0.2540853260732199,0.9968748011267906,0.3672098120702463
4.928619384765625,1.3958065503971906,0.10827776257521611,1.6482148990524963,1.64,-0.89,1.29,-0.1991788623163273,0.21414642239887627,-0.2441934496028093,0.9982777625752162,0.35821489905249626
4.992659091949463,1.3956969239915393,0.10968179593968616,1.6492208324206301,1.64,-0.89,1.29,-0.1992852924102418,0.21445557346052443,-0.24430307600846057,0.9996817959396862,0.3592208324206301
5.056619167327881,1.3955860242284455,0.1110839726434029,1.6502255149352896,1.64,-0.89,1.3,-0.199316394368258,0.21414575379623396,-0.24441397577155444,1.0010839726434029,0.35022551493528953
5.120609283447266,1.3954736626992046,0.11248669571494373,1.6512306693288048,1.64,-0.9,1.3,-0.19942511444506533,0.21621410213030415,-0.24452633730079532,1.0124866957149437,0.35123066932880476
5.184642553329468,1.3953598140726386,0.11389025099265848,1.652236501580041,1.64,-0.9,1.3,-0.19953519891429647,0.2165233240296498,-0.24464018592736125,1.0138902509926586,0.35223650158004105
5.248600959777832,1.3952446893416264,0.11529205030698557,1.6532411578792083,1.64,-0.9,1.31,-0.19957140041615318,0.2162120102932999,-0.24475531065837353,1.0152920503069855,0.3432411578792083
5.312609672546387,1.3951280641294685,0.11669483569705036,1.6542466043882056,1.64,-0.9,1.31,-0.19968381480438807,0.2165212534582417,-0.24487193587053135,1.0166948356970504,0.34424660438820553
5.376599550247192,1.395010063491156,0.11809709038922597,1.6552517550366503,1.64,-0.9,1.32,-0.19972409627294183,0.2162084526451742,-0.24498993650884393,1.018097090389226,0.3352517550366503
5.440625429153442,1.3948905858577711,0.1195000145831096,1.6562574711907079,1.64,-0.91,1.32,-0.19983891324202555,0.2182772055176718,-0.24510941414222875,1.0295000145831097,0.3362574711907078
5.50458025932312,1.3947698322719408,0.12090126130070553,1.657262071313821,1.64,-0.91,1.32,-0.1999548914445355,0.21858627988870133,-0.24523016772805906,1.0309012613007056,0.337262071313821
5.56861138343811,1.3946475244837244,0.12230405737921819,1.6582678698594249,1.64,-0.91,1.33,-0.20000035815046235,0.2182722471987181,-0.24535247551627548,1.0323040573792182,0.3282678698594248
5.632606506347656,1.3945238757839824,0.1237059411201413,1.6592731028994159,1.64,-0.91,1.33,-0.2001187796306114,0.21858164612653339,-0.2454761242160175,1.0337059411201412,0.3292731028994158
5.696606636047363,1.3943988080878122,0.12510780952158257,1.6602784145858829,1.64,-0.91,1.33,-0.20023849979653877,0.2188910257071183,-0.24560119191218766,1.0351078095215827,0.3302784145858828
5.760564565658569,1.3942724150004135,0.12650862725092682,1.6612830633949098,1.64,-0.91,1.34,-0.20028894238988207,0.2185752330355192,-0.24572758499958636,1.0365086272509267,0.32128306339490975
5.824608564376831,1.3941444417162925,0.12791120213478827,1.6622890641743089,1.64,-0.92,1.34,-0.20041111503303338,0.2206442415171317,-0.24585555828370742,1.0479112021347883,0.3222890641743088
5.88861608505249,1.3940151316016822,0.1293128488029894,1.6632944919579544,1.63,-0.92,1.34,-0.19153450793041182,0.22095373782052852,-0.23598486839831767,1.0493128488029895,0.32329449195795434
5.952589273452759,1.3938844827909276,0.1307136130426668,1.6642993804514794,1.63,-0.92,1.35,-0.19159009271180952,0.22063663801781172,-0.2361155172090723,1.0507136130426669,0.3142993804514793
6.016582250595093,1.3937523853679386,0.13211467852279274,1.665304579785838,1.63,-0.92,1.35,-0.19171582487439032,0.22094618384909476,-0.23624761463206134,1.0521146785227928,0.3153045797858378
6.08057165145874,1.3936188871622142,0.13351553222285314,1.6663097229441421,1.63,-0.92,1.36,-0.19177547862836974,0.22062764770428128,-0.23638111283778573,1.053515532222853,0.30630972294414205
6.1446473598480225,1.3934837980563262,0.1349181401981057,1.667316221817889,1.63,-0.93,1.36,-0.1919037437978844,0.22269700055064817,-0.23651620194367373,1.0649181401981058,0.30731622181788887
6.2085676193237305,1.3933476301573375,0.13631720923981386,1.6683202789058111,1.63,-0.93,1.36,-0.19203298482027362,0.22300626519541558,-0.23665236984266236,1.0663172092398139,0.30832027890581104
6.272558212280273,1.3932099054329794,0.13771768006842208,1.6693254407894667,1.63,-0.93,1.37,-0.19209775937409412,0.22268640912508317,-0.2367900945670205,1.067717680068422,0.29932544078946655
6.336559772491455,1.393070749112207,0.1391182517427311,1.6703307749463554,1.63,-0.93,1.37,-0.19222952992642597,0.22299617696395385,-0.23692925088779293,1.0691182517427311,0.3003307749463553
6.400557041168213,1.39293019429199,0.14051858891149835,1.671336041691979,1.63,-0.93,1.38,-0.19229836209317414,0.22267490369132883,-0.23706980570800984,1.0705185889114983,0.291336041691979
6.464550018310547,1.392788241397563,0.1419186901880225,1.6723412410263374,1.63,-0.94,1.38,-0.1924324797475647,0.22474402662724047,-0.23721175860243693,1.0819186901880224,0.2923412410263375
6.528512477874756,1.3926449498965745,0.1433179804754714,1.6733459609916996,1.63,-0.94,1.38,-0.19256782037724932,0.2250536655144253,-0.2373550501034254,1.0833179804754713,0.29334596099169974
6.592553377151489,1.392500074262159,0.14471884182746003,1.6743519130851852,1.63,-0.94,1.39,-0.19264186850554713,0.22473133333315642,-0.23749992573784096,1.08471884182746,0.28435191308518526
