time,x_r,y_r,theta_r,x,y,theta,v,omega,x_e,y_e,theta_e
0,1.4,0.0,1.5707963267948966,1.1,-0.25,1.56,0.29198986693604667,0.0600842916617549,0.2999999999999998,0.25,0.010796326794896505
0.06503009796142578,1.3999992695902315,0.0014300862974226836,1.5718178171849857,1.1,-0.25,1.56,0.2919889555734746,0.06040327251363467,0.2999992695902314,0.2514300862974227,0.011817817184985646
0.12902474403381348,1.3999971246967333,0.0028374003734409365,1.5728230427348362,1.1,-0.25,1.56,0.29198675282000963,0.0607171732943433,0.29999712469673323,0.25283740037344093,0.012823042734836143
0.19301676750183105,1.3999935653113542,0.004244653908510352,1.5738282270889135,1.1,-0.25,1.56,0.291983254816627,0.06103105985174333,0.2999935653113541,0.25424465390851037,0.013828227088913403
0.25702476501464844,1.3999885899605577,0.005652254439530271,1.5748336623627,1.1,-0.25,1.56,0.291978460144887,0.06134502308632581,0.29998858996055766,0.25565225443953027,0.014833662362699895
0.3210117816925049,1.3999822016879009,0.007059387869893397,1.5758387680703012,1.1,-0.25,1.56,0.29197237172985463,0.06165888141512058,0.2999822016879008,0.2570593878698934,0.015838768070301157
0.38501787185668945,1.3999743965641887,0.008466933608800025,1.5768441733835252,1.1,-0.25,1.56,0.29196498582440383,0.06197283098864277,0.29997439656418856,0.2584669336088,0.016844173383525174
0.4490084648132324,1.3999651786943919,0.009874129996074605,1.577849335267181,1.1,-0.25,1.56,0.29195630631665137,0.06228670192042578,0.29996517869439177,0.2598741299960746,0.01784933526718091
0.5129694938659668,1.3999545516080836,0.011280666283924535,1.5788540327621214,1.1,-0.25,1.56,0.29194633649135054,0.06260042489986695,0.2999545516080835,0.26128066628392455,0.018854032762121387
0.5770018100738525,1.3999424971762018,0.012688758806916575,1.5798598500330767,1.1,-0.25,1.56,0.29193505937173414,0.06291449427190404,0.2999424971762017,0.26268875880691656,0.019859850033076665
0.6409897804260254,1.399929036286157,0.01409586332622746,1.5808649707209592,1.1,-0.25,1.56,0.291922494516016,0.06322834255384935,0.29992903628615686,0.2640958633262275,0.020864970720959164
0.7049822807312012,1.3999141599901506,0.015503053217707083,1.5818701625651772,1.1,-0.25,1.56,0.2919086335486055,0.06354220915799033,0.2999141599901505,0.26550305321770706,0.021870162565177154
0.768977165222168,1.3998978685727947,0.01691027987189712,1.582875391860098,1.1,-0.25,1.56,0.2918934767383675,0.06385608324211596,0.29989786857279466,0.26691027987189714,0.022875391860097904
0.8330907821655273,1.3998801284130742,0.01832010027795583,1.5838824862000196,1.1,-0.25,1.56,0.29187699286467417,0.06417053512640217,0.2998801284130741,0.26832010027795583,0.023882486200019537
0.896975040435791,1.3998610395134088,0.01972485874316769,1.584885977782329,1.1,-0.25,1.56,0.2918592747987369,0.06448385725692349,0.2998610395134087,0.2697248587431677,0.024885977782328927
0.9609673023223877,1.399840505111564,0.021131972198558138,1.5858911658814767,1.1,-0.25,1.56,0.2918402326768955,0.0647977039333796,0.299840505111564,0.2711319721985581,0.025891165881476663
1.0249624252319336,1.3998185552937061,0.02253912721116636,1.5868963989214677,1.1,-0.25,1.56,0.2918198944415876,0.0651115591590869,0.29981855529370605,0.27253912721116635,0.026896398921467668
1.0889530181884766,1.39979519267239,0.023946159843839625,1.5879015608051232,1.1,-0.25,1.56,0.2917982625129497,0.06542538636913821,0.29979519267238985,0.27394615984383963,0.027901560805123182
1.1529505252838135,1.3997704130140018,0.02535332030742133,1.5889068312958172,1.1,-0.25,1.56,0.2917753329717998,0.06573924137099135,0.29977041301400176,0.2753533203074213,0.02890683129581717
1.2169387340545654,1.3997442227000396,0.026760250706252826,1.58991195572877,1.1,-0.25,1.56,0.2917511117224142,0.06605304433914747,0.29974422270003953,0.2767602507062528,0.029911955728769923
1.28096604347229,1.3997166009591346,0.02816801376395194,1.5909176943532493,1.1,-0.25,1.56,0.2917255795640822,0.06636703230389482,0.29971660095913455,0.27816801376395195,0.030917694353249203
1.3449366092681885,1.3996875897518561,0.029574500750473843,1.591922541651001,1.1,-0.25,1.56,0.2916987752780018,0.06668073493364435,0.29968758975185605,0.27957450075047385,0.031922541651000946
1.408937931060791,1.399657150287314,0.030981634069150988,1.5929278720628195,1.1,-0.25,1.56,0.29167066301707084,0.06699458100136267,0.299657150287314,0.280981634069151,0.03292787206281944
1.472926139831543,1.3996253028758396,0.03238844778179527,1.5939329964957722,1.1,-0.25,1.56,0.29164126154341136,0.06730835506454914,0.29962530287583955,0.2823884477817953,0.033932996495772194
1.5369203090667725,1.3995920382937115,0.03379535981246306,1.5949382145554822,1.1,-0.24,1.56,0.2916105623399231,0.06586285845060044,0.2995920382937114,0.27379535981246306,0.03493821455548218
1.600928783416748,1.3995573515651196,0.035202552180601004,1.595943657319409,1.1,-0.24,1.56,0.2915785608193539,0.06617671552850363,0.29955735156511953,0.27520255218060097,0.03594365731940896
1.6649081707000732,1.3995212667296926,0.03660906952268062,1.5969486431847615,1.1,-0.24,1.56,0.2915452791569764,0.06649042133032652,0.2995212667296925,0.2766090695226806,0.03694864318476143
1.7289142608642578,1.3994837524370134,0.03801613690021276,1.5979540484979855,1.1,-0.24,1.56,0.29151068843724093,0.06680424909049615,0.2994837524370133,0.27801613690021276,0.03795404849798545
1.7928988933563232,1.3994448367782637,0.03942269415779011,1.598959116754884,1.1,-0.24,1.56,0.2914748145632267,0.06711796235528844,0.2994448367782636,0.2794226941577901,0.03895911675488395
1.8569080829620361,1.3994044917037007,0.04082975140148043,1.5999645707540218,1.1,-0.23,1.56,0.29143763167828796,0.06567249452891648,0.29940449170370065,0.27082975140148047,0.03996457075402171
1.920893669128418,1.3993627475781272,0.0422362485383681,1.6009696539912015,1.1,-0.21,1.55,0.29138906211478127,0.06312664392834139,0.2993627475781271,0.25223624853836807,0.05096965399120146
1.9848942756652832,1.3993195795301074,0.043643033163187885,1.601974973167809,1.11,-0.2,1.54,0.28233655079658776,0.062339744251546494,0.28931957953010734,0.2436430331631879,0.06197497316780898
2.048884630203247,1.3992750044912878,0.04504954834297479,1.6029801313063943,1.11,-0.18,1.53,0.28228011508216755,0.059792999799896725,0.28927500449128773,0.22504954834297478,0.07298013130639425
2.1128902435302734,1.399229004570217,0.04645635338077798,1.6039855291294778,1.11,-0.17,1.52,0.28221974022295815,0.05900503137785793,0.28922900457021683,0.21645635338077798,0.08398552912947777
2.176884889602661,1.3991815985194227,0.04786287041781497,1.6049907546793283,1.11,-0.16,1.51,0.28215544608021886,0.0582163306725533,0.2891815985194226,0.20786287041781498,0.09499075467932827
2.2408688068389893,1.3991327869292076,0.049269103297181746,1.605995811701016,1.11,-0.14,1.51,0.28210940822868164,0.05501114928573063,0.2891327869292075,0.18926910329718177,0.09599581170101601
2.3049280643463135,1.3990825020474014,0.05067694214120241,1.607002052164913,1.12,-0.13,1.5,0.2730396273302114,0.05422191626274352,0.27908250204740126,0.18067694214120242,0.1070020521649131
2.368927240371704,1.3990308497216222,0.05208340932768691,1.608007348871099,1.12,-0.12,1.49,0.27296596948920726,0.0534315265907115,0.27903084972162207,0.1720834093276869,0.1180073488710991
2.432857036590576,1.3989778417985577,0.05348829924992658,1.6090115557618325,1.12,-0.1,1.48,0.27288844975257565,0.05088055550602034,0.27897784179855756,0.15348829924992657,0.12901155576183254
2.4968478679656982,1.3989233704735398,0.05489447643389504,1.6100167213905585,1.12,-0.09,1.47,0.2728069692041677,0.05008813761389598,0.27892337047353966,0.14489447643389503,0.14001672139055854
2.560842990875244,1.3988674819400064,0.05630069245422476,1.6110219544305495,1.13,-0.08,1.46,0.26372157560817083,0.04929461584048864,0.26886748194000654,0.13630069245422477,0.15102195443054955
2.6248717308044434,1.3988101493875627,0.057707590231652936,1.6120277155254503,1.13,-0.06,1.45,0.263632247402987,0.04674075437392343,0.26881014938756276,0.11770759023165293,0.16202771552545037
2.6888375282287598,1.3987514603069733,0.059113046691144366,1.6130324879217965,1.13,-0.05,1.44,0.2635390732643225,0.045944577852664786,0.2687514603069734,0.10911304669114437,0.1730324879217966
2.7528302669525146,1.3986913334812887,0.06051903538833175,1.6140376835110848,1.13,-0.04,1.43,0.26344198000969304,0.04514714683746982,0.2686913334812888,0.10051903538833175,0.18403768351108485
2.816822052001953,1.398629794320235,0.06192494198412362,1.6150428641200918,1.14,-0.02,1.42,0.2543409972783526,0.04258894630268184,0.25862979432023514,0.08192494198412362,0.19504286412009186
2.8808226585388184,1.3985668332248515,0.06333097980774975,1.6160481832966993,1.14,-0.01,1.42,0.254280036646934,0.04114207785569099,0.25856683322485163,0.07333097980774975,0.19604818329669937
2.944810628890991,1.3985024714942635,0.06473667603790108,1.617053303984582,1.14,0.0,1.41,0.2541736625627446,0.0403414339940131,0.25850247149426364,0.06473667603790108,0.2070533039845821
3.008812427520752,1.3984366825349899,0.06614261062682572,1.6180586418865408,1.15,0.01,1.4,0.24506339644657157,0.039539203468229964,0.24843668253498996,0.05614261062682572,0.2180586418865409
3.07281756401062,1.3983694766282355,0.0675485516830229,1.6190640322194838,1.15,0.02,1.39,0.244949254403898,0.038735248836523406,0.2483694766282356,0.0475485516830229,0.2290640322194839
3.1368062496185303,1.398300875054595,0.06895406312577672,1.6200691641425773,1.16,0.03,1.37,0.2357779082191396,0.03856940697050688,0.23830087505459518,0.03895406312577672,0.2500691641425772
3.2007944583892822,1.398230861318429,0.07035949443197767,1.62107428857553,1.16,0.05,1.36,0.23565371502816618,0.036000539266470545,0.2382308613184292,0.020359494431977668,0.26107428857552994
3.264796018600464,1.3981594199336846,0.07176514788323558,1.6220796227324186,1.16,0.06,1.36,0.2355837004436994,0.03455261204229127,0.23815941993368472,0.011765147883235585,0.26207962273241847
3.3287854194641113,1.3980865794093336,0.07317046176914041,1.6230847658907228,1.17,0.07,1.35,0.22645415522493112,0.03374076171509732,0.22808657940933363,0.0031704617691404036,0.2730847658907227
3.392780065536499,1.3980123202359662,0.0745758169143966,1.6240899914405733,1.17,0.09,1.34,0.2263207680191663,0.031167477003432163,0.2280123202359663,-0.015424183085603393,0.28408999144057323
3.456749677658081,1.3979366782795766,0.07598054698844574,1.625094823758044,1.18,0.1,1.33,0.21718358215083713,0.0303511098365765,0.21793667827957663,-0.024019453011554268,0.29509482375804397
3.5207808017730713,1.3978595500710258,0.07738655099711521,1.6261006223036478,1.18,0.11,1.32,0.21704250413170542,0.02953270391894282,0.21785955007102586,-0.03261344900288479,0.30610062230364776
3.5847740173339844,1.3977810546629459,0.07879164438785531,1.6271058253830766,1.19,0.12,1.31,0.2078976598282268,0.02871169240275367,0.20778105466294594,-0.041208355612144684,0.3171058253830765
3.6487624645233154,1.3977011528973964,0.08019655347512548,1.6281109535610998,1.19,0.13,1.3,0.20774901970705315,0.027888152277501424,0.20770115289739643,-0.04980344652487452,0.32811095356109976
3.7127645015716553,1.3976198216393374,0.0816016798897317,1.629116295208129,1.2,0.15,1.29,0.19859657018138416,0.025302796912869623,0.19761982163933745,-0.06839832011026829,0.339116295208129
3.776759147644043,1.3975370874273507,0.08300656157844935,1.6301215207579793,1.2,0.16,1.28,0.19844034707413513,0.024474025127558377,0.19753708742735077,-0.07699343842155065,0.3501215207579793
3.840768814086914,1.397452921118428,0.08441168910508101,1.6311269822472578,1.21,0.18,1.27,0.18928033140311346,0.021883278502148405,0.18745292111842793,-0.09558831089491898,0.3611269822472578
3.9047701358795166,1.3973673532992985,0.08581654813212336,1.632132312659076,1.21,0.19,1.27,0.18919549844804676,0.020433177624789085,0.18736735329929854,-0.10418345186787664,0.3621323126590761
3.9687340259552,1.3972804244599488,0.08722049885792361,1.63313705509486,1.22,0.2,1.26,0.18003028342228694,0.019598386353487957,0.17728042445994885,-0.1127795011420764,0.37313705509486006
4.032735824584961,1.3971920322827849,0.08862519351460643,1.634142392996819,1.22,0.21,1.25,0.17986126654693058,0.018760849870410823,0.1771920322827849,-0.12137480648539356,0.38414239299681907
4.096727132797241,1.3971022427931183,0.09002956837860607,1.6351475661156856,1.23,0.22,1.25,0.17077216157889122,0.017310097741797367,0.16710224279311836,-0.12997043162139393,0.38514756611568557
4.161928176879883,1.3970093039864075,0.0914603989462805,1.6361717417211676,1.23,0.24,1.24,0.17059619852034993,0.014715741872585472,0.16700930398640756,-0.1485396010537195,0.39617174172116765
4.224724292755127,1.3969184079143195,0.09283836292245999,1.6371581408027058,1.24,0.25,1.23,0.161419937311146,0.01386599462835674,0.15691840791431955,-0.15716163707754,0.40715814080270585
4.288712024688721,1.396824388893131,0.09424238215012745,1.638163257745518,1.24,0.26,1.22,0.16123826096182933,0.013018806397391074,0.1568243888931311,-0.16575761784987256,0.4181632577455181
4.352719068527222,1.3967289297017207,0.09564672986718055,1.639168678039023,1.25,0.27,1.21,0.1520528517915138,0.012168449500258435,0.1467289297017207,-0.17435327013281948,0.42916867803902314
4.4167139530181885,1.3966320771356773,0.0970507141430872,1.6401739073339439,1.26,0.28,1.21,0.14295647568077086,0.010716449701268784,0.13663207713567727,-0.18294928585691284,0.4301739073339439
4.4807116985321045,1.3965338088680477,0.09845466311202777,1.641179181569708,1.26,0.29,1.2,0.14276589712695645,0.00986238125588448,0.13653380886804767,-0.1915453368879722,0.44117918156970815
4.544703722000122,1.396434138272029,0.09985838707117316,1.6421843659237854,1.27,0.3,1.19,0.1335716489158454,0.00900485595755858,0.12643413827202887,-0.20014161292882682,0.4521843659237854
4.6087188720703125,1.396333019939513,0.10126251738229416,1.6431899135496801,1.27,0.32,1.18,0.13337369844813304,0.0063846405198328335,0.12633301993951296,-0.21873748261770584,0.4631899135496802
4.6726930141448975,1.396230555871036,0.10266564591944931,1.6441948170234864,1.28,0.33,1.18,0.12427159693726339,0.004931496359437373,0.11623055587103592,-0.2273343540805507,0.4641948170234864
4.73668646812439,1.3961266502764231,0.1040690942976537,1.6452000238479854,1.28,0.34,1.17,0.1240685415061682,0.004066532622191756,0.1161266502764231,-0.23593090570234632,0.47520002384798543
4.800682783126831,1.3960213292386336,0.10547250025858824,1.6462052756133279,1.29,0.35,1.16,0.11486184339649536,0.003197908367039145,0.10602132923863361,-0.24452749974141175,0.48620527561332794
4.864673137664795,1.3959146074844058,0.10687566894133142,1.6472104337519131,1.29,0.36,1.15,0.11465153084065462,0.002325503262645202,0.10591460748440573,-0.25312433105866855,0.4972104337519132
4.928701639175415,1.3958064104958239,0.10827956602592899,1.6482161911017439,1.3,0.37,1.15,0.1055435941453618,0.0008715009193434927,0.09580641049582383,-0.261720433974071,0.498216191101744
4.992665529251099,1.3956969129008494,0.1096819370682286,1.6492209335375279,1.3,0.38,1.14,0.10532823365030648,-5.2317342834114905e-06,0.09569691290084936,-0.2703180629317714,0.509220933537528
5.056657314300537,1.3955859576654295,0.11108480889422244,1.6502261141465349,1.31,0.39,1.13,0.09610923118632601,-0.0008857461049853969,0.08558595766542942,-0.27891519110577756,0.520226114146535
5.120649814605713,1.395473591082923,0.11248758415990152,1.6512313059907529,1.31,0.39,1.13,0.09599710359026183,-0.0005814307498756329,0.08547359108292296,-0.2775124158400985,0.521231305990753
5.184650182723999,1.3953598004237648,0.11389041821571601,1.65223662142229,1.32,0.4,1.12,0.08677302632349518,-0.0014662824244814372,0.07535980042376478,-0.28610958178428403,0.53223662142229
5.248653411865234,1.3952445943502498,0.11529319987061962,1.6532419817946706,1.33,0.41,1.11,0.07754537962574024,-0.0023551956147161886,0.06524459435024976,-0.29470680012938033,0.5432419817946705
5.3126444816589355,1.395128000322827,0.11669559852552037,1.6542471511684669,1.33,0.42,1.11,0.07742900919806259,-0.0038110142025631014,0.06512800032282695,-0.3033044014744796,0.5442471511684668
5.376637935638428,1.3950099922835157,0.11809793151933257,1.6552523579929659,1.34,0.43,1.1,0.06819635496936255,-0.004704526323045582,0.05500999228351566,-0.3119020684806674,0.5552523579929658
5.44063663482666,1.3948905648235599,0.11950026010938197,1.6562576472090111,1.34,0.44,1.1,0.06807720669305398,-0.0061607666509657134,0.054890564823559806,-0.32049973989061803,0.556257647209011
5.504633188247681,1.3947697317534729,0.12090242092011694,1.657262902719424,1.35,0.45,1.09,0.058839540101194854,-0.007058906968777362,0.04476973175347276,-0.3290975790798831,0.5672629027194238
5.568641424179077,1.3946474667708704,0.12230471548388247,1.6582683417382804,1.35,0.45,1.09,0.058717611566104666,-0.006756277377912134,0.04464746677087028,-0.3276952845161175,0.5682683417382803
5.6326165199279785,1.3945238563258926,0.12370616046891666,1.6592732601923679,1.36,0.46,1.08,0.04947499867932087,-0.0076592515899420455,0.0345238563258925,-0.3362938395310834,0.5792732601923678
5.696611404418945,1.3943987987170574,0.125107913964013,1.6602784894872886,1.36,0.47,1.08,0.049350336278890225,-0.009116453080708352,0.03439879871705731,-0.344892086035987,0.5802784894872886
5.760607719421387,1.3942723292452437,0.12650957236921975,1.661283741252631,1.37,0.47,1.07,0.040102714601864056,-0.008264856550993972,0.024272329245243585,-0.3434904276307802,0.5912837412526308
5.824604034423828,1.3941444508179814,0.12791110293257846,1.6622889930179734,1.37,0.48,1.07,0.039975291949802816,-0.009722536383782667,0.024144450817981333,-0.3520888970674215,0.5922889930179733
5.88860011100769,1.3940151640487806,0.12931249901711425,1.6632942410382456,1.37,0.49,1.06,0.03972272232654138,-0.010635142599117865,0.024015164048780457,-0.3606875009828857,0.6032942410382456
5.952593803405762,1.3938844734898224,0.1307137122263782,1.664299451607815,1.38,0.49,1.06,0.030592549805131618,-0.010334036916354336,0.013884473489822469,-0.3592862877736218,0.6042994516078148
6.016585111618042,1.3937523794305922,0.13211474115920027,1.6653046247266814,1.38,0.5,1.05,0.03033506180459779,-0.011251662815329789,0.013752379430592265,-0.3678852588407997,0.6153046247266813
6.08059287071228,1.393618842659907,0.13351599673170628,1.6663100562553974,1.39,0.51,1.05,0.021202107239920543,-0.012710285824313695,0.0036188426599070844,-0.37648400326829373,0.6163100562553974
6.144577503204346,1.393483946101917,0.13491661112045925,1.667315124512296,1.39,0.51,1.04,0.02093972555801881,-0.011873735307084982,0.003483946101917157,-0.37508338887954074,0.6273151245122959
6.208576440811157,1.3933476112681755,0.13631740231265027,1.6683204174734116,1.39,0.52,1.04,0.020804038676091433,-0.01333291147952642,0.003347611268175621,-0.38368259768734975,0.6283204174734116
6.272565841674805,1.393209888928573,0.1377178470338296,1.6693255606317159,1.4,0.52,1.04,0.011667086997912655,-0.013032903899894784,-0.0067901110714270185,-0.3822821529661704,0.6293255606317159
6.336558818817139,1.3930707511962375,0.1391182308741396,1.6703307599660742,1.4,0.53,1.03,0.011398338219775091,-0.013961233297803523,-0.0069292488037624445,-0.3908817691258604,0.6403307599660741
6.4005725383758545,1.3929301600855695,0.1405189279918902,1.6713362851215474,1.4,0.53,1.03,0.011258585865954487,-0.013661633436839845,-0.0070698399144304425,-0.38948107200810983,0.6413362851215474
6.4645609855651855,1.3927882169487507,0.14191893012815368,1.6723414132995704,1.41,0.54,1.03,0.0021176041017901166,-0.01512150860667025,-0.017211783051249263,-0.3980810698718463,0.6423414132995704
6.528551816940308,1.3926448613348834,0.14331884104172476,1.6733465789282964,1.41,0.54,1.02,0.0018425355795062045,-0.014296284739415039,-0.01735513866511651,-0.39668115895827527,0.6533465789282964
6.592550039291382,1.3925000818499085,0.1447187688173108,1.6743518606542012,1.42,0.55,1.02,-0.007301212637857869,-0.01575664556771811,-0.02749991815009145,-0.4052812311826892,0.6543518606542011
