time,x_r,y_r,theta_r,x,y,theta,v,omega,x_e,y_e,theta_e
0,1.4,0.0,1.5707963267948966,1.56,-0.07,0.87,-0.12719152878560216,0.07024620988740732,-0.16000000000000014,0.07,0.7007963267948966
0.06502890586853027,1.39999926961701,0.00143006008194438,1.5718177984596344,1.56,-0.07,0.87,-0.12720667985163017,0.07054928512558194,-0.16000073038299,0.07143006008194439,0.7018177984596344
0.1290299892425537,1.3999971244629508,0.0028375157213687396,1.5728231251263824,1.56,-0.07,0.87,-0.12722289223903135,0.07084752642199127,-0.16000287553704928,0.07283751572136875,0.7028231251263825
0.1929924488067627,1.3999935669326977,0.004244119114931674,1.5738278450917447,1.56,-0.07,0.87,-0.12724038408974425,0.07114554416965488,-0.16000643306730233,0.07424411911493169,0.7038278450917447
0.25701022148132324,1.3999885912517747,0.005651934613134576,1.5748334339134127,1.56,-0.07,0.87,-0.12725918157975014,0.07144377572670538,-0.1600114087482254,0.07565193461313459,0.7048334339134127
0.3210113048553467,1.3999822017407766,0.007059377383829916,1.5758387605801607,1.56,-0.07,0.87,-0.12727926471601533,0.07174188532347162,-0.16001779825922346,0.07705937738382992,0.7058387605801607
0.385007381439209,1.399974397959377,0.008466702916689493,1.576844008600433,1.56,-0.07,0.87,-0.12730063648795253,0.07203992709693013,-0.160025602040623,0.0784667029166895,0.706844008600433
0.44899511337280273,1.3999651807652025,0.009873836389867068,1.5778491255432452,1.56,-0.07,0.87,-0.12732329535553735,0.07233788521485006,-0.16003481923479757,0.07987383638986707,0.7078491255432452
0.513002872467041,1.399954545693327,0.011281400293869398,1.5788545570719612,1.56,-0.07,0.87,-0.12734725169596073,0.07263589147676466,-0.16004545430667316,0.0812814002938694,0.7088545570719612
0.5769948959350586,1.399942498554282,0.012688606763308222,1.5798597414260385,1.56,-0.07,0.87,-0.12737249222976352,0.07293377907326279,-0.16005750144571795,0.08268860676330823,0.7098597414260385
0.6409871578216553,1.3999290368668458,0.014095805655068497,1.5808649295251862,1.56,-0.07,0.87,-0.12739902276350495,0.07323162208018477,-0.16007096313315428,0.08409580565506851,0.7108649295251862
0.7049777507781982,1.3999141610932875,0.015502953604945574,1.5818700914088417,1.56,-0.07,0.87,-0.1274268424363603,0.07352941132064955,-0.16008583890671257,0.08550295360494559,0.7118700914088417
0.7689712047576904,1.3998978701560434,0.016910148803999374,1.5828752982333407,1.56,-0.07,0.87,-0.12745595322564274,0.07382716757324762,-0.16010212984395666,0.08691014880399939,0.7128752982333407
0.833021879196167,1.3998801482405627,0.01831858515224868,1.5838814038747078,1.56,-0.07,0.87,-0.12748638164722625,0.074125143401361,-0.16011985175943733,0.08831858515224869,0.7138814038747078
0.8969764709472656,1.3998610390701827,0.019724890198635558,1.5848860002527507,1.56,-0.07,0.87,-0.1275180536659037,0.07442262535156413,-0.1601389609298174,0.08972489019863557,0.7148860002527507
0.9609687328338623,1.3998405046367195,0.02113200365356459,1.5858911883518982,1.56,-0.07,0.87,-0.1275510337214358,0.07472023533271653,-0.16015949536328056,0.0911320036535646,0.7158911883518982
1.0249862670898438,1.3998185468525464,0.02253965145305207,1.586896773428496,1.56,-0.07,0.87,-0.12758531729375672,0.07501791531579637,-0.1601814531474537,0.09253965145305207,0.716896773428496
1.0889508724212646,1.3997951934795096,0.023946112662857205,1.5879015270994907,1.56,-0.07,0.87,-0.1276208616327036,0.07531530139695872,-0.1602048065204904,0.09394611266285721,0.7179015270994907
1.1529500484466553,1.3997704132039017,0.025353309822944172,1.5889068238056765,1.56,-0.07,0.87,-0.1276577147698049,0.07561280010191603,-0.16022958679609833,0.09535330982294418,0.7189068238056765
1.2169370651245117,1.3997442234015722,0.026760214011269372,1.589911929513278,1.56,-0.07,0.87,-0.12769585043631998,0.07591019388137221,-0.16025577659842782,0.09676021401126939,0.719911929513278
1.2809357643127441,1.3997166143563577,0.028167348025243812,1.5909172187293232,1.56,-0.07,0.87,-0.12773528278881754,0.07620759324560604,-0.1602833856436423,0.09816734802524382,0.7209172187293232
1.3449318408966064,1.3996875919670237,0.029574395911905804,1.5919224667495955,1.56,-0.07,0.87,-0.12777600324732813,0.07650493140847152,-0.1603124080329763,0.09957439591190581,0.7219224667495955
1.4089303016662598,1.3996571540002127,0.030981466331089967,1.5929277522205705,1.56,-0.07,0.87,-0.12781801494929315,0.0768022313322673,-0.16034284599978732,0.10098146633108998,0.7229277522205705
1.4729981422424316,1.3996252662432465,0.03239003077370351,1.5939341275069978,1.56,-0.07,0.87,-0.12786136400148368,0.07709980385596715,-0.1603747337567536,0.10239003077370351,0.7239341275069978
1.5369369983673096,1.3995920294340436,0.03379572672240045,1.594938476710402,1.56,-0.07,0.87,-0.12790591434275525,0.07739672741671509,-0.16040797056595646,0.10379572672240045,0.724938476710402
1.6010522842407227,1.3995572832714216,0.0352052672467897,1.5959455972658156,1.56,-0.07,0.87,-0.12795188016484577,0.07769441996073648,-0.16044271672857846,0.1052052672467897,0.7259455972658156
1.6649327278137207,1.399521252607924,0.03660960937714505,1.5969490289270005,1.56,-0.07,0.87,-0.127998964805433,0.07799097168717592,-0.16047874739207613,0.10660960937714506,0.7269490289270005
1.7289683818817139,1.399483720117813,0.0380173266446569,1.5979548986289396,1.56,-0.07,0.87,-0.12804745330744516,0.07828819312935435,-0.16051627988218709,0.10801732664465691,0.7279548986289396
1.7929301261901855,1.3994448174371557,0.03942338073130984,1.598959607359091,1.56,-0.07,0.87,-0.1280971745853144,0.07858502042915455,-0.1605551825628444,0.10942338073130985,0.728959607359091
1.8569185733795166,1.399404484975629,0.040829981999679604,1.5999647355371143,1.57,-0.07,0.87,-0.1371482053743431,0.07888192025629218,-0.17059551502437098,0.11082998199967961,0.7299647355371143
1.9209983348846436,1.399362678136217,0.042238549210809204,1.6009712980770556,1.57,-0.08,0.87,-0.13720060071778536,0.08093848384425066,-0.1706373218637831,0.1222385492108092,0.7309712980770556
1.9849095344543457,1.3993195690695086,0.04364336855839774,1.601975212852307,1.57,-0.08,0.87,-0.13725414573862244,0.08123492162605019,-0.17068043093049146,0.12364336855839775,0.731975212852307
2.0489420890808105,1.3992749638307103,0.04505081127531653,1.6029810338683326,1.58,-0.09,0.87,-0.14630908184933505,0.0832911618462295,-0.1807250361692898,0.13505081127531654,0.7329810338683326
2.112949848175049,1.3992289610740265,0.046457663433498615,1.6039864653970486,1.58,-0.09,0.87,-0.1463652865230981,0.0835879425470386,-0.18077103892597357,0.1364576634334986,0.7339864653970486
2.176888942718506,1.3991815954721731,0.0478629594983831,1.604990818345523,1.58,-0.1,0.86,-0.14657099990591324,0.08613083911985957,-0.18081840452782694,0.1478629594983831,0.744990818345523
2.240886688232422,1.3991327730904333,0.049269496285976454,1.6059960925812873,1.59,-0.1,0.86,-0.1556299360804056,0.0864270198625543,-0.1908672269095668,0.14926949628597647,0.7459960925812873
2.304888963699341,1.399082533172486,0.05067608283657536,1.6070014379733868,1.59,-0.11,0.86,-0.1556901654220611,0.08848245944047985,-0.19091746682751398,0.16067608283657536,0.7470014379733868
2.3688793182373047,1.3990308889274876,0.05208235619443125,1.608006596111972,1.59,-0.11,0.86,-0.1557516721656567,0.08877849767117267,-0.19096911107251247,0.16208235619443126,0.7480065961119721
2.4328596591949463,1.3989778395950645,0.05348835688190029,1.6090115969576055,1.6,-0.11,0.85,-0.16496500127034563,0.08955534545165833,-0.2010221604049356,0.16348835688190028,0.7590115969576056
2.4969868659973145,1.3989232506149243,0.054897530809442076,1.6100189047665334,1.6,-0.12,0.85,-0.1650293844551096,0.09161074373686862,-0.2010767493850758,0.17489753080944206,0.7600189047665334
2.560870885848999,1.3988674572704165,0.056301305400492614,1.6110223926037726,1.6,-0.12,0.85,-0.16509480980573774,0.09190567162419022,-0.20113254272958359,0.1763013054004926,0.7610223926037726
2.624925374984741,1.3988101007602953,0.05770876892615487,1.6120285581662641,1.61,-0.13,0.85,-0.1741616986956202,0.09396062237311636,-0.21118989923970477,0.18770876892615487,0.7620285581662641
2.6888535022735596,1.3987514454743009,0.05911339766545182,1.6130327388415056,1.61,-0.13,0.84,-0.17438251903965318,0.09473017276520156,-0.21124855452569924,0.18911339766545182,0.7730327388415056
2.752856492996216,1.3986913085498855,0.06051961159003488,1.6140380954688158,1.61,-0.14,0.84,-0.17445208910676382,0.09678431193459804,-0.21130869145011455,0.2005196115900349,0.7740380954688159
2.816850185394287,1.3986297669543337,0.06192556006420935,1.6150433060383853,1.62,-0.14,0.84,-0.18352293702498235,0.09707905902098107,-0.2213702330456664,0.20192556006420936,0.7750433060383853
2.880842447280884,1.3985668135389298,0.06333141453942681,1.6160484941375328,1.62,-0.14,0.84,-0.18359507110934975,0.09737374186513768,-0.22143318646107035,0.20333141453942682,0.7760484941375329
2.9448416233062744,1.3985024399764556,0.06473735691159944,1.6170537908437188,1.62,-0.15,0.83,-0.18382348019432831,0.09989574878010414,-0.22149756002354448,0.21473735691159945,0.7870537908437188
3.0088319778442383,1.3984366622228084,0.0661430400808029,1.618058948982304,1.63,-0.15,0.83,-0.19289834416874233,0.10018983906756372,-0.2315633377771915,0.2161430400808029,0.7880589489823041
3.0728304386138916,1.3983694629676071,0.06754883448058797,1.619064234453279,1.63,-0.16,0.83,-0.1929745051508936,0.1022431994700053,-0.23163053703239278,0.227548834480588,0.7890642344532791
3.136823892593384,1.3983008559449432,0.06895445064416804,1.620069441277778,1.63,-0.16,0.83,-0.19305194755228694,0.10253718566055872,-0.23169914405505665,0.22895445064416803,0.7900694412777781
3.2008233070373535,1.3982308294346342,0.07036012804518497,1.6210747417290343,1.64,-0.17,0.82,-0.2022878361670088,0.10505192513602997,-0.24176917056536573,0.24036012804518497,0.8010747417290344
3.2647972106933594,1.3981594185898567,0.07176517406426203,1.62207964145777,1.64,-0.17,0.82,-0.20236798297003727,0.10534522802824578,-0.2418405814101432,0.24176517406426204,0.8020796414577701
3.3288209438323975,1.3980865385788661,0.07317124192307173,1.623085323906195,1.64,-0.17,0.82,-0.202449479846102,0.10563869866670518,-0.2419134614211338,0.24317124192307174,0.8030853239061951
3.3928167819976807,1.3980122772248158,0.07457662320516112,1.6240905681813969,1.65,-0.18,0.82,-0.21153222843781963,0.10769127233799282,-0.2519877227751841,0.2545766232051611,0.8040905681813969
3.4567811489105225,1.3979366407184772,0.07598123805742313,1.6250953181073216,1.65,-0.18,0.81,-0.21177551510379974,0.10843918709999942,-0.2520633592815227,0.2559812380574231,0.8150953181073215
3.5208380222320557,1.3978594805141238,0.07738780741682649,1.6261015211205159,1.65,-0.19,0.81,-0.21186107115794325,0.11049143645537367,-0.2521405194858761,0.2673878074168265,0.8161015211205158
3.585127115249634,1.3977806176276018,0.07879939710810059,1.6271113718321657,1.66,-0.19,0.81,-0.22094823337087047,0.11078539317445636,-0.26221938237239817,0.2687993971081006,0.8171113718321656
3.6488425731658936,1.3977010519814688,0.08019831226338349,1.628112211904715,1.66,-0.2,0.81,-0.22103589878976423,0.11283595652726765,-0.26229894801853115,0.2801983122633835,0.8181122119047148
3.712803363800049,1.3976197718256207,0.08160253306178361,1.6291169056545851,1.66,-0.2,0.81,-0.22112518423689304,0.11312828679208807,-0.2623802281743792,0.2816025330617836,0.8191169056545851
3.77675461769104,1.39753709333379,0.08300646213483144,1.630121449601644,1.67,-0.21,0.8,-0.23037729387864422,0.11562740891628175,-0.27246290666620987,0.29300646213483145,0.830121449601644
3.8407533168792725,1.3974529416666874,0.08441134892371706,1.6311267388176893,1.67,-0.21,0.8,-0.2304693534781257,0.11591929833024522,-0.2725470583333125,0.29441134892371706,0.8311267388176893
3.9047470092773438,1.3973673844739398,0.08581604050793962,1.6321319493872586,1.67,-0.21,0.8,-0.2305626917521469,0.1162111006576357,-0.2726326155260601,0.29581604050793964,0.8321319493872585
3.9687418937683105,1.3972804136805905,0.08722067154406497,1.6331371786821793,1.68,-0.22,0.79,-0.2398207987125266,0.11870339652550624,-0.2827195863194094,0.30722067154406496,0.8431371786821793
4.032734394073486,1.3971920342742299,0.08862516211911224,1.6341423705263973,1.68,-0.22,0.79,-0.23991685434822013,0.11899457082419762,-0.28280796572577005,0.30862516211911223,0.8441423705263973
4.096731424331665,1.3971022367241082,0.0900296625590355,1.6351476335269506,1.69,-0.23,0.79,-0.2490142022463006,0.12104499203775014,-0.2928977632758918,0.32002966255903553,0.8451476335269505
4.160737752914429,1.3970110139726013,0.09143427606343167,1.6361530425852449,1.69,-0.23,0.79,-0.24911284997835234,0.12133609777044385,-0.29298898602739865,0.32143427606343167,0.8461530425852448
4.224715948104858,1.3969184200833245,0.09283817981794257,1.6371580097252458,1.7,-0.24,0.78,-0.2583782665112609,0.12382064247882053,-0.3030815799166755,0.33283817981794256,0.8571580097252458
4.288719654083252,1.396824377598902,0.09424254954870309,1.638163377587767,1.7,-0.25,0.78,-0.2584796262448132,0.1258703960587168,-0.30317562240109797,0.3442425495487031,0.8581633775877671
4.3527514934539795,1.396728880985833,0.0956474412624972,1.6391691873685816,1.71,-0.25,0.78,-0.26758231658702,0.12616091816905065,-0.31327111901416704,0.3456474412624972,0.8591691873685816
4.416711330413818,1.3966320811337554,0.09705065660774893,1.6401738661381708,1.71,-0.26,0.77,-0.2678535732123759,0.1286381791701759,-0.3133679188662446,0.35705065660774893,0.8701738661381708
4.48075008392334,1.396533749503933,0.09845550516088979,1.6411797845260236,1.71,-0.26,0.77,-0.26795898927940426,0.1289280918993429,-0.313466250496067,0.3584555051608898,0.8711797845260236
4.544821500778198,1.3964339535251602,0.09986097056453494,1.6421862159885052,1.72,-0.27,0.77,-0.27706574622911884,0.13097737573204973,-0.3235660464748398,0.36986097056453493,0.8721862159885052
4.6087806224823,1.3963329217169278,0.10126387178785871,1.6431908835228834,1.72,-0.27,0.76,-0.27734283988481084,0.13168805866424269,-0.3236670782830722,0.37126387178785875,0.8831908835228834
4.672757387161255,1.3962304520580062,0.10266705774441878,1.6441958281924627,1.73,-0.28,0.76,-0.28645214770940225,0.1337362658040086,-0.33376954794199376,0.3826670577444188,0.8841958281924627
4.736689805984497,1.3961266448199763,0.10406916749794755,1.6452000762789694,1.73,-0.28,0.75,-0.28673357555706663,0.13444005158822775,-0.3338733551800237,0.38406916749794756,0.8952000762789694
4.800678491592407,1.3960213363486653,0.10547240615102407,1.6462052082020628,1.74,-0.29,0.75,-0.29584560863711384,0.13648765716113354,-0.34397866365133467,0.3954724061510241,0.8962052082020628
