time,x_r,y_r,theta_r,x,y,theta,v,omega,x_e,y_e,theta_e
0,1.69,0.0,1.5707963267948966,1.62,0.18,1.54,0.08953387040495367,-0.020286503196335758,0.06999999999999984,-0.18,0.030796326794896522
0.0651087760925293,1.689999116156264,0.0017284070836374556,1.571819053058179,1.62,0.18,1.54,0.08953222508821981,-0.019838029147253466,0.06999911615626386,-0.17827159291636255,0.031819053058179
0.1290125846862793,1.689996529752367,0.003424824806708891,1.5728228517362517,1.62,0.18,1.54,0.08952903620859903,-0.01939785795063191,0.06999652975236681,-0.1765751751932911,0.03282285173625166
0.19303154945373535,1.689992231221776,0.0051242960533622985,1.5738284592832712,1.62,0.18,1.54,0.08952427805678187,-0.018956896930768016,0.069992231221776,-0.1748757039466377,0.03382845928327116
0.25702810287475586,1.6899862260946446,0.006823167181073694,1.5748337147936837,1.62,0.18,1.54,0.08951795746389357,-0.018516094101985837,0.06998622609464444,-0.1731768328189263,0.03483371479368369
0.3210172653198242,1.6899785141606445,0.008521835211973954,1.5758388542069177,1.62,0.18,1.54,0.08951007404530881,-0.018075346447984364,0.06997851416064438,-0.17147816478802605,0.03583885420691768
0.3850126266479492,1.6899690938374436,0.010220659188599065,1.5768440909919792,1.62,0.18,1.54,0.08950062617842655,-0.017634560809140772,0.06996909383744354,-0.16977934081140092,0.03684409099197916
0.44901299476623535,1.6899579648615075,0.011919605746477237,1.5778494064235165,1.62,0.18,1.54,0.08948961363806557,-0.01719374584302408,0.0699579648615074,-0.16808039425352275,0.03784940642351642
0.5130090713500977,1.6899451288323302,0.013618426336359164,1.5788546544437885,1.62,0.18,1.54,0.08947703800909951,-0.01675296603918455,0.06994512883233006,-0.16638157366364084,0.03885465444378844
0.5769975185394287,1.6899305869095307,0.015317030639419114,1.5798597826218117,1.62,0.18,1.54,0.08946290039707674,-0.016312244831255,0.06993058690953058,-0.16468296936058088,0.03985978262181167
0.6409919261932373,1.6899143360861915,0.01701577768914909,1.5808650044265917,1.62,0.18,1.54,0.08944719787490717,-0.01587148906402648,0.06991433608619135,-0.1629842223108509,0.04086500442659169
0.7050137519836426,1.6898963695935967,0.018715235354712072,1.5818706569144545,1.62,0.18,1.54,0.0894299239698123,-0.015430551400486693,0.06989636959359657,-0.16128476464528793,0.04187065691445446
0.7690596580505371,1.6898766863245314,0.020415313292272447,1.5828766876544158,1.62,0.18,1.54,0.08941107771161153,-0.01498945528404715,0.06987668632453126,-0.15958468670772755,0.04287668765441577
0.8329503536224365,1.689855346648202,0.0221112506314018,1.583880280353623,1.62,0.18,1.54,0.08939071668311381,-0.014549435945436543,0.06985534664820192,-0.1578887493685982,0.0438802803536229
0.897050142288208,1.6898322267505697,0.02381271583022677,1.584887157479468,1.62,0.18,1.54,0.089368722831386,-0.014107984858459526,0.06983222675056955,-0.15618728416977323,0.04488715747946803
0.9609735012054443,1.689807464400778,0.02550947383647171,1.585891263253304,1.62,0.18,1.54,0.08934522726210298,-0.01366775754506415,0.06980746440077779,-0.1544905261635283,0.04589126325330395
1.0249416828155518,1.6897809791836649,0.027207395852873024,1.586896073100353,1.62,0.18,1.54,0.08932015349932848,-0.013227230702122238,0.06978097918366477,-0.15279260414712698,0.04689607310035293
1.0889623165130615,1.6897527640753582,0.028906682612964047,1.5879017068628642,1.62,0.18,1.54,0.08929349501420993,-0.01278635225485156,0.06975276407535813,-0.15109331738703594,0.04790170686286421
1.152942419052124,1.6897228596067635,0.030604864357509344,1.5889067039634275,1.62,0.18,1.54,0.08926529011546959,-0.012345762980794263,0.06972285960676339,-0.14939513564249066,0.048906703963427445
1.216935634613037,1.6896912418320544,0.0323033632312433,1.5899119070428562,1.62,0.18,1.54,0.08923551618805173,-0.011905093906238869,0.06969124183205433,-0.1476966367687567,0.049911907042856196
1.2809717655181885,1.689657893815861,0.034002968484358,1.590917784234936,1.62,0.18,1.54,0.08920415734249182,-0.011464140266479204,0.06965789381586096,-0.145997031515642,0.05091778423493598
1.344968557357788,1.6896228582842499,0.035701495253856755,1.591923043490419,1.62,0.18,1.54,0.08917125375982601,-0.011023468912931017,0.06962285828424974,-0.14429850474614325,0.051923043490418985
1.4089372158050537,1.6895861318384464,0.037399239286332965,1.5929278608276087,1.62,0.18,1.54,0.08913680218475081,-0.0105830031122085,0.06958613183844631,-0.14260076071366704,0.0529278608276087
1.472968339920044,1.689547661125767,0.03909860335677565,1.5939336593732123,1.62,0.18,1.54,0.08910075260003328,-0.010142119485991436,0.06954766112576682,-0.14090139664322435,0.05393365937321226
1.5370378494262695,1.689507456615249,0.04079894657307218,1.5949400608751316,1.62,0.18,1.54,0.08906311490215763,-0.009700984313421883,0.06950745661524893,-0.13920105342692782,0.05494006087513159
1.6009790897369385,1.6894656265235022,0.04249584445036949,1.5959444475292388,1.62,0.18,1.54,0.0890239903251243,-0.009260745472756755,0.06946562652350208,-0.1375041555496305,0.05594444752923877
1.664917230606079,1.6894220942631195,0.04419261720712089,1.5969487854974322,1.62,0.18,1.54,0.08898330713191167,-0.008820541567390507,0.0694220942631194,-0.1358073827928791,0.05694878549743221
1.728909969329834,1.689376818535384,0.04589079423222838,1.5979539810867203,1.62,0.18,1.54,0.088941026765542,-0.008379975821802714,0.0693768185353838,-0.1341092057677716,0.05795398108672023
1.7929091453552246,1.6893298310187008,0.04758909570823915,1.5989592777929063,1.62,0.18,1.54,0.08889717885295818,-0.007939380268368292,0.06932983101870072,-0.13241090429176083,0.05895927779290622
1.856902837753296,1.6892811404746078,0.04928720358073066,1.5999644883624755,1.62,0.19,1.54,0.08885177157093836,-0.009622554054802373,0.06928114047460765,-0.14071279641926934,0.05996448836247548
1.9208967685699463,1.6892307428084767,0.05098526797734368,1.6009697026771152,1.62,0.19,1.54,0.08880480109741719,-0.009182024965292239,0.06923074280847663,-0.13901473202265632,0.06096970267711521
1.9848954677581787,1.6891786343034003,0.052683407377454625,1.6019749918931605,1.62,0.2,1.54,0.08875626397151555,-0.010865195530660659,0.06917863430340021,-0.14731659262254537,0.06197499189316047
2.048903703689575,1.6891248105571963,0.05438174657102685,1.602980430912017,1.62,0.2,1.53,0.08868812367698435,-0.009630049177083492,0.06912481055719621,-0.14561825342897317,0.072980430912017
2.1128859519958496,1.6890693021544307,0.056079341290212206,1.6039854617182128,1.62,0.2,1.53,0.08863620735289453,-0.009189704142730338,0.06906930215443063,-0.14392065870978782,0.07398546171821274
2.1769235134124756,1.6890120374445539,0.05777834687317395,1.604991361380714,1.62,0.21,1.53,0.08858268188348256,-0.010872713060178849,0.06901203744455375,-0.15222165312682603,0.07499136138071405
2.240873336791992,1.6889531457039557,0.059474966302743126,1.6059958828573513,1.62,0.21,1.53,0.08852766807903564,-0.010432627573504046,0.06895314570395561,-0.15052503369725687,0.07599588285735126
2.3048737049102783,1.6888925011347373,0.06117286662280195,1.6070011982888888,1.62,0.22,1.53,0.08847104839777038,-0.01211592975433914,0.06889250113473722,-0.15882713337719806,0.07700119828888874
2.368860960006714,1.6888301626210598,0.06287035725463092,1.6080063077415603,1.62,0.22,1.52,0.08839086799508238,-0.010881976442685844,0.06883016262105968,-0.15712964274536909,0.08800630774156026
2.4328572750091553,1.6887661087864472,0.06456802470481629,1.6090115595069028,1.62,0.22,1.52,0.0883308606884371,-0.01044169573899867,0.06876610878644707,-0.1554319752951837,0.08901155950690276
2.496854543685913,1.6887003474086069,0.06626565220421533,1.6100168262525263,1.62,0.23,1.52,0.08826928983732044,-0.012125146119384984,0.06870034740860675,-0.16373434779578466,0.09001682625252627
2.560858964920044,1.6886328718599897,0.06796340245958506,1.6110222053502583,1.62,0.23,1.52,0.0882061492431981,-0.01168485212025894,0.06863287185998956,-0.16203659754041494,0.09102220535025829
2.6248486042022705,1.688563705638007,0.06966069194346514,1.612027352253633,1.62,0.23,1.51,0.08811574406521723,-0.010452037079086339,0.06856370563800684,-0.16033930805653487,0.10202735225363302
2.6888396739959717,1.6884928318225396,0.0713579489888861,1.613032521627429,1.62,0.24,1.51,0.08804922654563276,-0.01213567375030453,0.06849283182253951,-0.1686420510111139,0.10303252162742904
2.7528598308563232,1.6884202186333996,0.07305590537350419,1.6140381478997998,1.62,0.24,1.51,0.08798111565075518,-0.011695417353336216,0.06842021863339953,-0.1669440946264958,0.10403814789979982
2.8168365955352783,1.6883459489237125,0.07475263709655128,1.615043092569379,1.63,0.25,1.51,0.07891148908371004,-0.013379200020745177,0.05834594892371259,-0.17524736290344872,0.10504309256937905
2.8808343410491943,1.6882699489351207,0.07644984972257605,1.6160483668051433,1.63,0.25,1.51,0.07884027767773436,-0.012939146258137498,0.05826994893512083,-0.17355015027742393,0.10604836680514329
2.9448330402374268,1.688192241650429,0.0781470103797963,1.6170536560211886,1.63,0.25,1.51,0.0787675029862704,-0.012499110865000353,0.05819224165042902,-0.1718529896202037,0.10705365602118855
3.0088417530059814,1.6881128157090497,0.07984435758940263,1.6180591025301856,1.63,0.26,1.5,0.07866320521577506,-0.013391442669260963,0.0581128157090498,-0.1801556424105974,0.11805910253018559
3.0728235244750977,1.6880317177239668,0.08154090971944214,1.6190641258462408,1.63,0.26,1.5,0.0785870612336624,-0.01295166553992178,0.05803171772396687,-0.17845909028055787,0.11906412584624082
3.1368119716644287,1.687948905977236,0.08323755648895426,1.620069254024264,1.63,0.27,1.5,0.07850934790863832,-0.014635586209732591,0.05794890597723601,-0.18676244351104576,0.12006925402426405
3.200803756713867,1.6878643844719663,0.08493420766140454,1.621074434633271,1.63,0.27,1.5,0.07843006900648951,-0.014195794803023434,0.0578643844719664,-0.1850657923385955,0.12107443463327106
3.2648043632507324,1.68777814556459,0.08663100688872162,1.6220797538098786,1.63,0.27,1.5,0.07834921736862357,-0.013755970719020915,0.057778145564590044,-0.1833689931112784,0.12207975380987857
3.3287932872772217,1.6876902170851322,0.08832740885557282,1.6230848894780423,1.63,0.28,1.5,0.07826681908404158,-0.015439971941314447,0.057690217085132334,-0.1916725911444272,0.1230848894780423
3.392787218093872,1.6876005764562003,0.09002385430929094,1.6240901037926818,1.63,0.28,1.5,0.07818285298960266,-0.015000250957565943,0.057600576456200425,-0.1899761456907091,0.12409010379268182
3.4567861557006836,1.687509223368114,0.09172034151454317,1.6250953967537973,1.63,0.28,1.49,0.07806288056342742,-0.01377086431265779,0.05750922336811404,-0.18827965848545686,0.13509539675379734
3.5207531452178955,1.6874162117398184,0.09341588921398998,1.626100187875495,1.63,0.29,1.49,0.07797556428432871,-0.015455208265250323,0.05741621173981848,-0.19658411078601,0.13610018787549505
3.584866523742676,1.6873212777770472,0.09511522255050879,1.6271072784703464,1.63,0.29,1.49,0.07788648300744987,-0.015014861121202355,0.05732127777704732,-0.19488477744949118,0.13710727847034643
3.648771047592163,1.6872249500884198,0.09680892417091053,1.6281110883836298,1.63,0.3,1.49,0.0777961326958194,-0.016699696451259644,0.05722495008841988,-0.20319107582908946,0.13811108838362984
3.712772846221924,1.6871267717814156,0.09850510615404016,1.6291164262855888,1.63,0.3,1.49,0.0777040847085182,-0.016260178924147266,0.057126771781415675,-0.2014948938459598,0.13911642628558885
3.776761770248413,1.6870269085523093,0.10020084740379169,1.6301215619537526,1.63,0.3,1.49,0.07761049446971807,-0.015820782105890323,0.05702690855230941,-0.19979915259620828,0.14012156195375258
3.8407607078552246,1.6869253248963014,0.10189675276233016,1.631126854914868,1.63,0.31,1.49,0.07751532870241279,-0.01750506590448088,0.05692532489630153,-0.20810324723766982,0.1411268549148681
3.9047563076019287,1.6868220418416493,0.10359246670085948,1.6321320954449996,1.63,0.31,1.49,0.0774186071119946,-0.017065689175775046,0.05682204184164941,-0.20640753329914052,0.1421320954449996
3.9687557220458984,1.686717047930107,0.10528817702830949,1.6331373958962558,1.63,0.32,1.49,0.07732031896854598,-0.01875003652429501,0.05671704793010712,-0.2147118229716905,0.14313739589625585
4.032744646072388,1.6866103670026449,0.10698350302361313,1.6341425315644196,1.63,0.32,1.49,0.07722048658487658,-0.018310773328608854,0.05661036700264499,-0.21301649697638686,0.14414253156441958
4.096768379211426,1.6865019226731006,0.10867964307971582,1.6351482140128444,1.63,0.32,1.48,0.07707932922937423,-0.017083875553981984,0.056501922673100724,-0.21132035692028417,0.1551482140128444
4.160738468170166,1.6863918656268482,0.11037425219496784,1.6361530538204558,1.63,0.33,1.48,0.07697614266171561,-0.018768647851358736,0.05639186562684828,-0.2196257478050322,0.15615305382045586
4.224748134613037,1.6862800361543342,0.11206979819441688,1.637158515309734,1.63,0.33,1.48,0.07687133184952444,-0.018329468152707282,0.0562800361543343,-0.21793020180558315,0.15715851530973413
4.288732528686523,1.6861665470945273,0.11376456152651133,1.6381635798215624,1.63,0.34,1.48,0.0767650025621415,-0.020014215125740618,0.0561665470945274,-0.2262354384734887,0.15816357982156237
4.352748870849609,1.6860512968036516,0.11546005606582788,1.6391691461728086,1.63,0.34,1.48,0.07665705957396764,-0.019575063387247224,0.05605129680365173,-0.22453994393417215,0.15916914617280864
4.416712284088135,1.685934439042176,0.11715403216084024,1.6401738811184519,1.63,0.34,1.48,0.07654764687884315,-0.01913631225195215,0.0559344390421761,-0.22284596783915978,0.16017388111845188
4.480710506439209,1.685815814359058,0.11884881176059713,1.6411791628443566,1.63,0.35,1.48,0.07643661516942146,-0.02082107695024657,0.055815814359058136,-0.23115118823940284,0.16117916284435663
4.544707536697388,1.685695488262425,0.12054343968754279,1.6421844258449099,1.63,0.35,1.48,0.07632402578820531,-0.020382171613492105,0.05569548826242521,-0.2294565603124572,0.16218442584490989
4.608724355697632,1.685573420683496,0.12223846974393263,1.6431899996862966,1.63,0.36,1.48,0.07620984125772325,-0.02206688607882428,0.05557342068349613,-0.23776153025606736,0.16318999968629666
4.672705173492432,1.6854497187734354,0.12393242306413361,1.6441950080220709,1.63,0.36,1.48,0.07609416179651576,-0.021628170092746247,0.05544971877343552,-0.23606757693586639,0.16419500802207088
4.736709117889404,1.6853242688523387,0.1256268634382415,1.6452003796296624,1.63,0.36,1.48,0.07597688108709053,-0.021189335281788485,0.055324268852338765,-0.23437313656175848,0.16520037962966239
4.8006885051727295,1.6851971645657167,0.12732052678051714,1.6462053654950146,1.63,0.37,1.48,0.07585808667572341,-0.022874425658904858,0.05519716456571677,-0.24267947321948286,0.16620536549501463
4.864690780639648,1.6850683118517344,0.12901466735664308,1.6472107108871141,1.63,0.37,1.48,0.0757376906489206,-0.022435683125448514,0.05506831185173455,-0.24098533264335692,0.16721071088711414
4.928678035736084,1.6849377868460182,0.13070827999190454,1.6482158203397859,1.63,0.37,1.48,0.07561576415139179,-0.02199708463318743,0.054937786846018355,-0.23929172000809545,0.16821582033978588
4.99267053604126,1.684805548731659,0.132401899393524,1.6492210121840039,1.63,0.38,1.48,0.07549226904784377,-0.023682208339996624,0.054805548731659215,-0.247598100606476,0.16922101218400387
5.056670427322388,1.6846715927038771,0.13409558060048626,1.6502263201254004,1.63,0.38,1.47,0.07532092234859977,-0.022459411346961427,0.054671592703877225,-0.24590441939951374,0.1802263201254004
5.120668649673462,1.6845359376326836,0.13578908212362004,1.6512316018513051,1.63,0.38,1.47,0.07519403594378152,-0.02202100355103095,0.05453593763268372,-0.24421091787637997,0.18123160185130516
5.184658050537109,1.6843985992347852,0.13748221301642294,1.6522367450096094,1.64,0.39,1.47,0.06606560882333098,-0.023706416459327403,0.044398599234785285,-0.2525177869835771,0.1822367450096094
5.24865460395813,1.6842595434309793,0.1391753942393141,1.6532420005200221,1.64,0.39,1.47,0.06593560911798733,-0.023268107829127013,0.044259543430979376,-0.2508246057606859,0.18324200052002215
5.312643527984619,1.6841188024999445,0.14086823299151938,1.6542471361881859,1.64,0.39,1.47,0.06580406700389096,-0.022829895977297402,0.0441188024999446,-0.24913176700848064,0.1842471361881859
5.376646995544434,1.683976327539694,0.1425613141280787,1.6552525003056366,1.64,0.4,1.47,0.06567093678056522,-0.02451534614215847,0.04397632753969405,-0.2574386858719213,0.18525250030563667
5.440639972686768,1.6838321742593505,0.14425397370273185,1.6562576996399951,1.64,0.4,1.47,0.06553627050630625,-0.024077196924187572,0.0438321742593506,-0.25574602629726817,0.18625769963999517
5.504634618759155,1.6836863157657842,0.14594653165813984,1.6572629251898456,1.64,0.4,1.47,0.06540004305129546,-0.023639082137562797,0.0436863157657843,-0.25405346834186016,0.18726292518984566
5.568632364273071,1.6835387487557574,0.14763902410236396,1.6582681994256099,1.64,0.41,1.47,0.06526225133392184,-0.025324709070529482,0.04353874875575747,-0.262360975897636,0.1882681994256099
5.632627725601196,1.6833894859940963,0.14933130430198424,1.6592734362106711,1.64,0.41,1.47,0.06512290727395133,-0.024886682436478732,0.04338948599409642,-0.26066869569801576,0.18927343621067116
5.696620225906372,1.6832385289529483,0.1510233579560268,1.660278628054889,1.64,0.41,1.47,0.06498201224192805,-0.024448722569875018,0.04323852895294844,-0.2589766420439732,0.19027862805488893
5.760617733001709,1.6830858591392959,0.15271539138324594,1.661283898545583,1.64,0.42,1.47,0.06483954897901031,-0.02613449270278555,0.04308585913929597,-0.26728460861675407,0.19128389854558292
5.824610233306885,1.6829315005953804,0.15440713812444312,1.6622890903898007,1.64,0.42,1.46,0.06464350596494006,-0.024915686854737013,0.042931500595380534,-0.26559286187555686,0.2022890903898007
5.8886144161224365,1.6827754129542443,0.15609903765453764,1.6632944657424624,1.64,0.42,1.46,0.06449765176748579,-0.02447794861003882,0.04277541295424436,-0.26390096234546234,0.20329446574246246
5.952611207962036,1.6826176427172457,0.15779058405576246,1.6642997249979457,1.64,0.43,1.46,0.06435025757898484,-0.026164027299632256,0.042617642717245774,-0.27220941594423753,0.2042997249979457
6.016615629196167,1.682458153004885,0.15948217263190034,1.6653051040956777,1.64,0.43,1.46,0.06420128894556386,-0.025726387382671665,0.04245815300488509,-0.27051782736809965,0.2053051040956777
6.080596685409546,1.6822970218389388,0.16117298257411788,1.666310116176522,1.64,0.43,1.46,0.06405081873047244,-0.02528895784552535,0.04229702183893891,-0.2688270174258821,0.20631011617652195
6.144585371017456,1.6821341719522798,0.16286383131443727,1.6673152480996154,1.64,0.44,1.46,0.06389877476729154,-0.02697524384083808,0.042134171952279864,-0.27713616868556273,0.20731524809961543
6.2085864543914795,1.6819695905761443,0.16455484306794887,1.6683205747663634,1.64,0.44,1.46,0.06374514514905248,-0.02653777997011576,0.041969590576144356,-0.2754451569320511,0.20832057476636345
6.2725982666015625,1.6818032812471508,0.16624597194012428,1.6693260699612742,1.64,0.44,1.46,0.06358993319363523,-0.026100294744922575,0.041803281247150936,-0.2737540280598757,0.20932606996127423
6.336583137512207,1.681635342650134,0.16793622107802073,1.6703311419632432,1.64,0.45,1.46,0.06343323098938386,-0.027786762675758653,0.04163534265013413,-0.2820637789219793,0.2103311419632432
6.400583267211914,1.6814656646592987,0.16962670359310328,1.6713364536497102,1.64,0.45,1.46,0.06327493577055665,-0.027349462542932995,0.041465664659298795,-0.28037329640689673,0.2113364536497102
6.464560508728027,1.6812943488856045,0.17131641020442592,1.67234140580943,1.64,0.45,1.46,0.06311514232627723,-0.026912372063119753,0.04129434888560457,-0.27868358979557406,0.21234140580942995
6.528558969497681,1.6811212774594744,0.17300650413503185,1.673346691280405,1.64,0.46,1.46,0.06295374071347191,-0.02859890696920472,0.04112127745947447,-0.28699349586496814,0.21334669128040495
