time,x_r,y_r,theta_r,x,y,theta,v,omega,x_e,y_e,theta_e
0,1.4,0.0,1.5707963267948966,1.21,0.11,1.52,0.19296278315965504,-0.0006127055514039519,0.18999999999999995,-0.11,0.05079632679489654
0.06505012512207031,1.3999992691402772,0.001430526717458108,1.5718181317708895,1.21,0.11,1.52,0.19296097298414977,-0.0002937108638090529,0.1899992691402772,-0.10856947328254189,0.05181813177088945
0.12907099723815918,1.3999971226348686,0.0028384175324399964,1.572823769278471,1.21,0.11,1.52,0.19295788457287438,2.0232804731838694e-05,0.18999712263486868,-0.10716158246756001,0.05282376927847099
0.19304823875427246,1.3999935632128415,0.004245345994317135,1.573828721438191,1.21,0.11,1.52,0.19295350313876503,0.0003339584952717668,0.18999356321284155,-0.10575465400568286,0.05382872143819095
0.25791478157043457,1.3999885108032633,0.005671826765773568,1.574847642710066,1.21,0.11,1.52,0.19294773900010223,0.0006520406279463316,0.1899885108032633,-0.10432817323422643,0.054847642710065925
0.3210256099700928,1.3999822001544693,0.00705969196573416,1.5758389852843777,1.21,0.11,1.52,0.19294085350564286,0.000961508775118039,0.18998220015446932,-0.10294030803426583,0.055838985284377696
0.3850212097167969,1.399974396120257,0.008467007010835144,1.5768442258145092,1.21,0.11,1.52,0.19293258502403002,0.0012753105146920077,0.18997439612025713,-0.10153299298916485,0.05684422581450921
0.44901275634765625,1.399965178028761,0.009874224369498363,1.577849402678446,1.21,0.11,1.52,0.19292302178546314,0.0015890870875405524,0.189965178028761,-0.10012577563050164,0.05784940267844596
0.5130088329315186,1.3999545446370798,0.011281531367073513,1.5788546506987182,1.21,0.11,1.52,0.19291216250242904,0.0019028802627994602,0.18995454463707984,-0.09871846863292649,0.0588546506987182
0.577017068862915,1.3999424941348628,0.012689094351431023,1.5798600897175747,1.21,0.11,1.52,0.19290000538453883,0.0022167271304305916,0.18994249413486286,-0.09731090564856898,0.05986008971757473
0.6410057544708252,1.399929032749183,0.014096214596013361,1.5808652216406682,1.21,0.11,1.52,0.19288655669112545,0.002530471894694533,0.18992903274918294,-0.09590378540398664,0.06086522164066821
0.7049915790557861,1.3999141577257947,0.015503257686006765,1.5818703086229182,1.21,0.11,1.52,0.1928718136085829,0.0028441960716810277,0.18991415772579479,-0.09449674231399324,0.0618703086229182
0.7689871788024902,1.3998978659129098,0.016910500065964992,1.5828755491530497,1.21,0.11,1.52,0.192855773030375,0.0031579612988544056,0.1898978659129098,-0.09308949993403501,0.06287554915304971
0.8330132961273193,1.399880150710308,0.018318396416864974,1.5838812690521775,1.21,0.11,1.52,0.1928384285501244,0.0034718689507771006,0.18988015071030806,-0.09168160358313503,0.0638812690521775
0.896996259689331,1.3998610329388137,0.01972532533260675,1.5848863110935842,1.21,0.11,1.52,0.1928198005263785,0.0037855575161989657,0.18986103293881373,-0.09027467466739325,0.06488631109358423
0.96108078956604,1.3998404674383567,0.02113446762903699,1.5858929485349313,1.21,0.11,1.52,0.19279984506971307,0.004099736184492678,0.1898404674383567,-0.08886553237096301,0.06589294853493133
1.024965763092041,1.3998185541119557,0.022539200605030552,1.5868964513524517,1.21,0.11,1.52,0.19277865894212007,0.004412928383369862,0.1898185541119557,-0.08746079939496945,0.0668964513524517
1.0890161991119385,1.399795168906487,0.02394754906164307,1.5879025532487483,1.21,0.11,1.52,0.19275612214938928,0.004726923284816996,0.18979516890648696,-0.08605245093835692,0.06790255324874828
1.1529626846313477,1.399770408171528,0.025353587661588274,1.5889070222944015,1.21,0.11,1.52,0.19273232764347825,0.005040399814806553,0.18977040817152813,-0.08464641233841172,0.06890702229440149
1.2169744968414307,1.399744207666966,0.026761037027322427,1.5899125174893125,1.21,0.11,1.52,0.19270721363307175,0.005354187489773531,0.18974420766696598,-0.08323896297267758,0.06991251748931249
1.280949592590332,1.3997166082379802,0.02816765206339477,1.5909174359433997,1.21,0.11,1.52,0.19268081931020523,0.005667785768459907,0.1897166082379802,-0.08183234793660524,0.07091743594339972
1.3449907302856445,1.3996875646091518,0.029575690668209448,1.5919233917819553,1.21,0.11,1.53,0.19266780759384886,0.005323443160317628,0.18968756460915182,-0.08042430933179055,0.06192339178195527
1.4089407920837402,1.399657148894972,0.03098169697092375,1.5929279170036628,1.21,0.11,1.53,0.19263905532251946,0.005636943607939716,0.1896571488949721,-0.07901830302907625,0.06292791700366274
1.4729366302490234,1.399625297538752,0.032388678416380504,1.5939331612788648,1.21,0.11,1.53,0.1926089878163803,0.005950658766687511,0.189625297538752,-0.0776113215836195,0.06393316127886473
1.536923885345459,1.3995920363952192,0.033795438436021265,1.5949382707315365,1.21,0.11,1.53,0.19257762951705454,0.006264321834868997,0.18959203639521927,-0.07620456156397873,0.06493827073153646
1.600928544998169,1.3995573516969557,0.03520254693916036,1.5959436535743388,1.21,0.11,1.53,0.19254496745267558,0.0065780598837049346,0.18955735169695576,-0.07479745306083964,0.06594365357433873
1.6649467945098877,1.3995212445186618,0.03660991861416592,1.5969492498861473,1.21,0.11,1.52,0.19249519390923772,0.007549878719697806,0.1895212445186618,-0.07339008138583408,0.07694924988614726
1.7289211750030518,1.3994837483081852,0.038016288893997906,1.5979541571050238,1.21,0.11,1.52,0.19245973742047687,0.00786339873968604,0.18948374830818526,-0.0719837111060021,0.07795415710502374
1.7929399013519287,1.3994448113837625,0.03942359561309651,1.5989597609069728,1.21,0.12,1.52,0.19242296094080308,0.006417832245221895,0.18944481138376257,-0.08057640438690349,0.07895976090697276
1.856919288635254,1.3994044845168956,0.04082999772228406,1.599964746772325,1.21,0.12,1.52,0.19238491242941028,0.006731352590024442,0.18940448451689562,-0.07917000227771594,0.07996474677232501
1.9209012985229492,1.3993627425164301,0.04223641624114671,1.6009697738334505,1.21,0.14,1.52,0.1923455680844965,0.0035262894360597926,0.18936274251643015,-0.0977635837588533,0.0809697738334505
1.9848949909210205,1.3993195790397688,0.04364304888483841,1.6019749844030198,1.21,0.15,1.52,0.19230492194053295,0.002080562515138917,0.18931957903976881,-0.10635695111516158,0.08197498440301976
2.048892021179199,1.399274999261153,0.04504971079485483,1.602980247403573,1.22,0.15,1.51,0.1832436560473133,0.0030513106380320367,0.1792749992611531,-0.10495028920514517,0.09298024740357302
2.112882614135742,1.3992290101376408,0.0464561856940268,1.6039854092872288,1.22,0.16,1.51,0.18320020243811813,0.0016054831806833793,0.1792290101376408,-0.11354381430597321,0.09398540928722876
2.1768815517425537,1.3991816010289184,0.04786279705734696,1.6049907022483443,1.22,0.17,1.51,0.18315544844812642,0.0001596820845078343,0.17918160102891845,-0.12213720294265305,0.09499070224834427
2.2408759593963623,1.3991327813937111,0.04926926049270009,1.6059959240531245,1.22,0.18,1.51,0.18310940300991704,-0.0012861560331892483,0.17913278139371114,-0.1307307395072999,0.09599592405312452
2.3048713207244873,1.3990825472165587,0.05067569510155445,1.6070011608381858,1.22,0.19,1.5,0.18303967007582359,-0.0020757019478425086,0.1790825472165587,-0.13932430489844555,0.10700116083818578
2.368863582611084,1.3990309018008824,0.0520820103894752,1.6080063489373335,1.22,0.2,1.5,0.1829908173801363,-0.0035216490449872153,0.17903090180088244,-0.14791798961052482,0.10800634893733352
2.4328651428222656,1.3989778349877533,0.053488477385117764,1.609011683094222,1.22,0.21,1.5,0.18294066298684447,-0.004967567059269493,0.17897783498775333,-0.15651152261488221,0.10901168309422204
2.496858835220337,1.39892336101667,0.054894717430946,1.6100168936637915,1.22,0.22,1.5,0.18288922035535066,-0.006413540359253331,0.17892336101667006,-0.165105282569054,0.11001689366379153
2.5608510971069336,1.3988674747710936,0.05630087057536354,1.611022081762939,1.22,0.23,1.49,0.18281102736666843,-0.007204241418131781,0.17886747477109366,-0.17369912942463647,0.12102208176293905
2.624856472015381,1.3988101632191372,0.05770725495854266,1.6120274758409523,1.22,0.24,1.49,0.1827567666936051,-0.008650269114060057,0.17881016321913723,-0.18229274504145732,0.1220274758409523
2.688847541809082,1.3987514510088903,0.05911326670488977,1.6130326452147485,1.23,0.25,1.49,0.17370122397078175,-0.010096385197613602,0.16875145100889033,-0.19088673329511024,0.12303264521474855
2.7528233528137207,1.3986913400540737,0.060518883480608306,1.6140375749040465,1.23,0.25,1.49,0.17364440097882364,-0.00978330275369235,0.1686913400540737,-0.1894811165193917,0.12403757490404654
2.8168349266052246,1.3986297817968902,0.06192522483433384,1.615043066353887,1.23,0.26,1.48,0.17355773452720355,-0.010575195054049054,0.16862978179689025,-0.19807477516566618,0.13504306635388708
2.880831003189087,1.3985668249235756,0.0633311631283372,1.6160483143741593,1.23,0.27,1.48,0.17349808605962103,-0.0120214299852055,0.16856682492357566,-0.20666883687166282,0.13604831437415932
2.944826126098633,1.398502455735401,0.06473701647475218,1.6170535474141503,1.23,0.28,1.48,0.17343714453644438,-0.013467689882232249,0.16850245573540112,-0.21526298352524786,0.13705354741415032
3.008819818496704,1.39843667485601,0.0661427729813788,1.6180587579837196,1.23,0.29,1.48,0.17337491054564616,-0.014913977392747973,0.16843667485601,-0.22385722701862118,0.13805875798371958
3.072812080383301,1.3983694824466342,0.06754843123220731,1.6190639460828673,1.23,0.3,1.47,0.17327981252622557,-0.015707395465426433,0.1683694824466342,-0.23245156876779266,0.14906394608286733
3.1368112564086914,1.3983008696315966,0.06895417309721263,1.620069242789053,1.24,0.31,1.47,0.16421476674429406,-0.017153793885962547,0.15830086963159662,-0.24104582690278736,0.1500692427890531
3.2008087635040283,1.3982308455083188,0.07035980862034673,1.621074513279747,1.24,0.32,1.47,0.16414842889677594,-0.018600222693193696,0.15823084550831878,-0.24964019137965326,0.15107451327974708
3.2648022174835205,1.3981594129457742,0.07176528402457288,1.622079720104246,1.24,0.33,1.46,0.1640464000843074,-0.01939508454853747,0.15815941294577418,-0.25823471597542713,0.1620797201042461
3.3288004398345947,1.3980865621454976,0.07317079163288596,1.6230850018301508,1.24,0.34,1.46,0.16397725592081314,-0.02084165933989108,0.15808656214549766,-0.26682920836711405,0.16308500183015084
3.3927929401397705,1.3980123051541873,0.07457609963973245,1.6240901936743686,1.24,0.34,1.46,0.16390682457910238,-0.02052899403620946,0.1580123051541873,-0.2654239003602676,0.1640901936743686
3.456796646118164,1.3979366222223557,0.07598157835653396,1.6250955615368898,1.24,0.35,1.46,0.1638350873331479,-0.02197559002031505,0.15793662222235572,-0.274018421643466,0.16509556153688987
3.5207977294921875,1.3978595294938931,0.07738692268795298,1.626100888203638,1.24,0.36,1.45,0.163724615923182,-0.02277212503395542,0.15785952949389315,-0.282613077312047,0.17610088820363812
3.584804058074951,1.3977810174826795,0.07879230397117105,1.6271062972619323,1.25,0.37,1.45,0.15465007065582237,-0.024218870730497867,0.14778101748267947,-0.29120769602882896,0.1771062972619324
3.6513912677764893,1.3976978401378644,0.08025426888302527,1.6281522467060392,1.25,0.38,1.45,0.1545711467348502,-0.025653041197235972,0.14769784013786436,-0.2997457311169747,0.17815224670603924
3.7127692699432373,1.397619815527253,0.08160178457342068,1.6291163701095346,1.25,0.39,1.45,0.1544971572593789,-0.0271126713540644,0.147619815527253,-0.3083982154265793,0.17911637010953463
3.776766061782837,1.3975370784122458,0.08300671336081271,1.6301216293650176,1.25,0.4,1.44,0.15437826629315368,-0.027911082371643574,0.14753707841224584,-0.3169932866391873,0.19012162936501764
3.8407790660858154,1.3974529075249182,0.0844119141481344,1.6311271432852799,1.25,0.41,1.44,0.15429832281276296,-0.029358022832240246,0.14745290752491824,-0.3255880858518656,0.1911271432852799
3.9047703742980957,1.3973673529779096,0.08581655336536231,1.6321323164041464,1.25,0.41,1.44,0.15421711364031562,-0.029045804944796597,0.1473673529779096,-0.32418344663463766,0.1921323164041464
3.9688053131103516,1.3972803267916503,0.0872220634989739,1.6331381748708746,1.26,0.42,1.43,0.1450912671527072,-0.029845870174678213,0.13728032679165025,-0.33277793650102605,0.2031381748708747
4.032764434814453,1.3971919924537344,0.08862582142448064,1.6341428424052529,1.26,0.43,1.43,0.14500729808961177,-0.031293288275111214,0.13719199245373437,-0.3413741785755193,0.20414284240525293
4.0967583656311035,1.3971021986240653,0.09003025380283325,1.6351480567198926,1.26,0.44,1.43,0.14492199129844247,-0.0327405659028427,0.13710219862406525,-0.34996974619716675,0.20514805671989267
4.160753488540649,1.3970109913723248,0.09143462136912148,1.6361532897598836,1.26,0.45,1.43,0.1448353905879921,-0.034187867303801446,0.13701099137232475,-0.35856537863087856,0.20615328975988367
4.224754571914673,1.396918363758015,0.09283902733026685,1.6371586164266316,1.26,0.46,1.42,0.14470118267446377,-0.03499022991758772,0.13691836375801492,-0.3671609726697332,0.2171586164266317
4.2887492179870605,1.396824333833575,0.09424319821817084,1.6381638419764821,1.26,0.46,1.42,0.1446117820126024,-0.03467844184865976,0.13682433383357506,-0.3657568017818292,0.2181638419764822
4.3527398109436035,1.3967288985379225,0.09564718495095215,1.6391690038601379,1.27,0.47,1.42,0.13552109512620597,-0.0361259965925437,0.12672889853792246,-0.3743528150490478,0.21916900386013793
4.416741132736206,1.3966320357009112,0.0970513104184012,1.6401743342719561,1.27,0.48,1.42,0.13542910095591248,-0.03757353057128742,0.1266320357009112,-0.3829486895815988,0.2201743342719562
4.480735540390015,1.3965337719959865,0.09845518612374753,1.6411795560767364,1.27,0.49,1.41,0.13528650856732954,-0.03837820152876008,0.12653377199598648,-0.39154481387625245,0.23117955607673646
4.544722080230713,1.3964341094757664,0.0998587897614565,1.6421846542941971,1.27,0.5,1.41,0.13519173705811774,-0.039826020471529354,0.1264341094757664,-0.4001412102385435,0.2321846542941972
4.608732223510742,1.3963329987023085,0.10126281022674863,1.6431901232736161,1.27,0.5,1.41,0.13509563861705948,-0.03951446573369063,0.12633299870230852,-0.39873718977325134,0.2331901232736162
4.6726531982421875,1.3962306200806027,0.10266477267950824,1.644194191596749,1.27,0.51,1.41,0.13499838462989167,-0.04096267024242348,0.1262306200806027,-0.40733522732049177,0.23419419159674915
4.736714124679565,1.3961266050657468,0.10406970081436565,1.6452004582761381,1.28,0.52,1.4,0.12584730891936152,-0.04176943638279713,0.11612660506574679,-0.4159302991856344,0.24520045827613823
4.800895929336548,1.3960209760990872,0.10547717426700409,1.6462086237061608,1.28,0.53,1.4,0.1257468500498817,-0.04321659807473181,0.11602097609908713,-0.42452282573299593,0.24620862370616092
4.86479640007019,1.3959144005489763,0.10687837171285941,1.6472123699532495,1.28,0.53,1.4,0.12564554135866338,-0.0429058710417215,0.11591440054897628,-0.4231216282871406,0.24721236995324958
4.92874002456665,1.3958063452077218,0.1082804076361998,1.6482167940580594,1.28,0.54,1.4,0.12554287571052591,-0.04435426129705843,0.11580634520772182,-0.43171959236380025,0.24821679405805952
4.992694854736328,1.3956968623764139,0.10968257998712996,1.6492213941811726,1.28,0.55,1.39,0.12538359713258243,-0.04516410511204193,0.11569686237641386,-0.4403174200128701,0.25922139418117274
5.056690454483032,1.3955858998384025,0.11108553538708948,1.6502266347113042,1.28,0.56,1.39,0.12527805362088493,-0.04661248130023975,0.1155858998384025,-0.44891446461291057,0.26022663471130425
5.120757818222046,1.3954734002438343,0.11248995160418414,1.651233002507591,1.28,0.56,1.39,0.12517109888171457,-0.046301253908922854,0.11547340024383423,-0.44751004839581593,0.26123300250759107
5.184692144393921,1.3953597253546006,0.11389133794250325,1.65223728055466,1.29,0.57,1.39,0.11606307677464656,-0.04775000185905595,0.10535972535460059,-0.45610866205749667,0.26223728055466
5.248657703399658,1.3952445865781862,0.11529329392582258,1.6532420492059359,1.29,0.58,1.38,0.11589542855465561,-0.04856249700390414,0.10524458657818614,-0.4647067060741774,0.273242049205936
5.312647104263306,1.3951279955154605,0.11669565599889685,1.6542471923642401,1.29,0.59,1.38,0.11578452096765539,-0.05001122884677191,0.10512799551546048,-0.4733043440011031,0.2742471923642402
5.376642465591431,1.3950099838800962,0.11809803078313114,1.6552524291493014,1.29,0.59,1.38,0.1156723129180385,-0.049700678674344564,0.10500998388009619,-0.47190196921686883,0.2752524291493015
5.440653085708618,1.394890533943469,0.11950062056283893,1.6562579056188607,1.29,0.6,1.38,0.11555878757403697,-0.05114938546991753,0.10489053394346892,-0.48049937943716103,0.27625790561886077
5.5046398639678955,1.3947697190753994,0.12090256717841515,1.657263007581392,1.29,0.6,1.37,0.1153827630062272,-0.050205330956977226,0.10476971907539934,-0.47909743282158485,0.2872630075813918
5.568634033203125,1.3946474809700935,0.12230455356924537,1.6582682256411017,1.3,0.61,1.37,0.10626647482684089,-0.05165438177499668,0.09464748097009346,-0.48769544643075463,0.28826822564110155
5.632631063461304,1.3945238280652719,0.12370647904689447,1.6592734886416551,1.3,0.62,1.37,0.10614889174162505,-0.053103459419699184,0.09452382806527182,-0.4962935209531055,0.28927348864165503
5.696622133255005,1.3943987776328308,0.1251081489594789,1.6602786580154512,1.3,0.62,1.37,0.10603003017097601,-0.052793315076142,0.09439877763283078,-0.49489185104052114,0.29027865801545105
5.760617256164551,1.3942723102937384,0.126509781235133,1.6612838910554424,1.3,0.63,1.36,0.10584566483480706,-0.05361149836707482,0.09427231029373839,-0.503490218764867,0.3012838910554423
5.824608087539673,1.3941444426743654,0.1279111916924504,1.6622890566841682,1.3,0.64,1.36,0.10572401386297352,-0.055060923948785354,0.09414444267436539,-0.5120888083075497,0.30228905668416806
5.888607501983643,1.394015149035955,0.1293126608583411,1.6632943571354244,1.3,0.64,1.36,0.105601057377023,-0.054751058671343944,0.09401514903595487,-0.5106873391416589,0.3032943571354243
5.952605962753296,1.393884448523663,0.13071397845633712,1.6642996426063994,1.3,0.65,1.36,0.10547681359278904,-0.056200532801470166,0.09388444852366296,-0.5192860215436629,0.3042996426063993
6.016592979431152,1.3937523631028748,0.13211491340931966,1.6653047483140007,1.31,0.66,1.36,0.09635130337599654,-0.05765010553799668,0.0837523631028747,-0.5278850865906803,0.30530474831400056
6.080596208572388,1.39361883565953,0.13351606980051328,1.6663101086863814,1.31,0.66,1.35,0.0961571125267225,-0.05671233100004104,0.08361883565952999,-0.5264839301994868,0.3163101086863813
6.144583463668823,1.3934839334701061,0.13491674158784156,1.6673152181390531,1.31,0.67,1.35,0.09602881444110414,-0.05816219336521364,0.08348393347010608,-0.5350832584121585,0.31731521813905306
6.208581209182739,1.3933476010578065,0.13631750667634454,1.6683204923748172,1.31,0.67,1.35,0.09589920691343568,-0.05785275790053852,0.08334760105780648,-0.5336824933236555,0.3183204923748171
6.27258563041687,1.3932098461201752,0.13771828010034604,1.6693258714725492,1.31,0.68,1.35,0.0957682972817786,-0.05930262715324831,0.08320984612017512,-0.542281719899654,0.3193258714725491
6.336571216583252,1.3930707241038185,0.13911850216582633,1.670330954709729,1.31,0.68,1.35,0.09563613822331893,-0.05899334098026719,0.08307072410381844,-0.5408814978341737,0.32033095470972883
6.400567531585693,1.3929301711368836,0.14051881844284145,1.6713362064750714,1.32,0.69,1.35,0.08650266905359182,-0.060443340554952,0.07293017113688349,-0.5494811815571585,0.32133620647507133
6.46456503868103,1.3927882079133096,0.14191901880167934,1.6723414769657652,1.32,0.7,1.34,0.08629720229311509,-0.06126868013927099,0.07278820791330953,-0.5580809811983206,0.3323414769657651
6.528559446334839,1.3926448441592212,0.14331900793941604,1.6733466987705454,1.32,0.7,1.34,0.08616095217545441,-0.06095970297637161,0.07264484415922112,-0.556680992060584,0.33334669877054535
