time,x_r,y_r,theta_r,x,y,theta,v,omega,x_e,y_e,theta_e
0,1.4,0.0,1.5707963267948966,1.55,-0.05,1.46,-0.11314369315609478,0.0314808662665879,-0.15000000000000013,0.05,0.1107963267948966
0.06504011154174805,1.3999992693652716,0.0014303065074404134,1.5718179744779377,1.55,-0.05,1.46,-0.11314684632734948,0.031799483447023796,-0.1500007306347284,0.05143030650744042,0.11181797447793773
0.1290421485900879,1.3999971239209636,0.0028377831188376654,1.572823316124967,1.55,-0.05,1.46,-0.11315125526317676,0.03211300757365333,-0.1500028760790364,0.05283778311883767,0.11282331612496699
0.19302582740783691,1.3999935647072719,0.004244853145333623,1.5738283694015842,1.55,-0.05,1.46,-0.11315695795655185,0.03242643376133585,-0.15000643529272817,0.05424485314533363,0.11382836940158425
0.25702834129333496,1.3999885896430342,0.005652333085365231,1.5748337185387542,1.55,-0.05,1.46,-0.11316395773112672,0.032739943885793,-0.15001141035696586,0.055652333085365234,0.11483371853875424
0.32102012634277344,1.3999822007625622,0.007059571376004242,1.5758388991477612,1.55,-0.05,1.46,-0.11317225159261056,0.03305339281277444,-0.15001779923743785,0.057059571376004245,0.11583889914776124
0.385021448135376,1.3999743960885476,0.00846701225383765,1.5768442295595795,1.55,-0.05,1.46,-0.1131818421230115,0.033366879491955076,-0.15002560391145248,0.05846701225383765,0.11684422955957952
0.4490165710449219,1.3999651774370838,0.009874308256986111,1.5778494625995705,1.55,-0.05,1.46,-0.11319272705601244,0.033680326530753736,-0.15003482256291623,0.059874308256986114,0.11784946259957052
0.5130021572113037,1.3999545458200757,0.011281384565084897,1.5788545458367502,1.55,-0.05,1.46,-0.11320490533515153,0.03399371726714934,-0.15004545417992432,0.061281384565084904,0.11885454583675026
0.5769977569580078,1.3999424979840438,0.012688669677904798,1.579859786366882,1.55,-0.05,1.46,-0.11321838068358209,0.03430714713856914,-0.15005750201595625,0.0626886696779048,0.11985978636688199
0.6409974098205566,1.399929034596867,0.014096031096871584,1.5808650905632082,1.55,-0.05,1.46,-0.11323315225965944,0.034620586632563205,-0.15007096540313314,0.06409603109687159,0.12086509056320827
0.7049980163574219,1.399914156158146,0.015503399240983276,1.5818704097398157,1.55,-0.05,1.46,-0.113249219485093,0.03493402025158325,-0.15008584384185397,0.06550339924098328,0.12187040973981578
0.7689909934997559,1.399897864899611,0.016910583949419307,1.5828756090741742,1.55,-0.05,1.46,-0.11326657998620882,0.03524740564624752,-0.15010213510038906,0.06691058394941932,0.12287560907417427
0.8329966068267822,1.3998801555125175,0.0183180294313957,1.5838810068972577,1.55,-0.05,1.46,-0.11328523939526894,0.0355608417427753,-0.1501198444874825,0.0683180294313957,0.12388100689725778
0.8969919681549072,1.3998610342685196,0.01972523096620352,1.584886243682319,1.55,-0.05,1.46,-0.11330519109326197,0.035874216140174345,-0.15013896573148044,0.06972523096620352,0.12488624368231904
0.960970401763916,1.399840504082733,0.021132040351072107,1.5858912145673902,1.55,-0.05,1.46,-0.11332643215367137,0.03618749583937226,-0.15015949591726696,0.07113204035107211,0.12589121456739027
1.0249669551849365,1.399818553689901,0.022539226817124884,1.586896470077803,1.55,-0.05,1.46,-0.1133489742271183,0.036500852138775075,-0.150181446310099,0.07253922681712488,0.12689647007780303
1.0889573097229004,1.3997951910581456,0.023946254205804377,1.5879016282163885,1.55,-0.05,1.46,-0.11337280908668314,0.03681416564300493,-0.1502048089418544,0.07394625420580438,0.1279016282163885
1.1529595851898193,1.399770409405889,0.02535351951248698,1.588906973608488,1.55,-0.05,1.46,-0.11339794363116953,0.03712752475305692,-0.15022959059411112,0.07535351951248698,0.12890697360848802
1.2169501781463623,1.399744217889504,0.026760502328996013,1.5899121354921435,1.55,-0.05,1.46,-0.11342436857303712,0.03744081358836443,-0.15025578211049595,0.07676050232899602,0.12991213549214353
1.2809524536132812,1.3997166069721008,0.028167714967839628,1.590917480884243,1.55,-0.05,1.46,-0.11345209353417142,0.03775414622408685,-0.15028339302789928,0.07816771496783963,0.13091748088424304
1.3449482917785645,1.399687584324662,0.029574757604964835,1.591922725159445,1.55,-0.05,1.46,-0.11348111079650638,0.03806743363373559,-0.15031241567533815,0.07957475760496484,0.13192272515944503
1.4089419841766357,1.3996571483148286,0.03098172317999572,1.5929279357290143,1.55,-0.05,1.46,-0.11351142201606869,0.03838069651241996,-0.15034285168517147,0.08098172317999572,0.1329279357290143
1.472937822341919,1.3996252969322625,0.03238870462485604,1.5939331800042162,1.55,-0.05,1.46,-0.11354302919495422,0.038693955551564456,-0.1503747030677376,0.08238870462485604,0.13393318000421628
1.5369300842285156,1.399592033104489,0.03379557471685524,1.5949383681033638,1.55,-0.05,1.46,-0.11357592943172273,0.039007182425770656,-0.15040796689551095,0.08379557471685524,0.1349383681033638
1.6009266376495361,1.3995573527516432,0.035202505007635165,1.5959436236137765,1.55,-0.05,1.46,-0.11361012675990181,0.0393204153293331,-0.15044264724835688,0.08520250500763517,0.13594362361377654
1.6649277210235596,1.3995212554871364,0.03660949930973042,1.5969489502805245,1.55,-0.06,1.46,-0.11364562154007798,0.04139294699554369,-0.1504787445128637,0.09660949930973042,0.13694895028052456
1.7289152145385742,1.399483751867521,0.03801615786487281,1.5979540634782665,1.55,-0.06,1.46,-0.11368240341223837,0.04170610465558302,-0.1505162481324791,0.0980161578648728,0.13795406347826655
1.7928838729858398,1.3994448460795925,0.039422363973574945,1.5989588808154562,1.55,-0.06,1.46,-0.11372046834021748,0.04201915422081657,-0.15055515392040753,0.09942236397357494,0.13895888081545626
1.8569047451019287,1.3994044938444428,0.04082967802932591,1.5999645183230378,1.55,-0.06,1.46,-0.11375985957643162,0.042332443060230956,-0.15059550615555728,0.10082967802932591,0.1399645183230378
1.9209051132202148,1.399362739985574,0.04223650009253578,1.600969833754575,1.55,-0.07,1.46,-0.11380053330114323,0.04440490688423464,-0.15063726001442612,0.11223650009253579,0.14096983375457506
1.9848945140838623,1.3993195793666613,0.04364303840373805,1.6019749769128793,1.55,-0.07,1.46,-0.11384249457890863,0.04471800828256597,-0.15068042063333875,0.11364303840373806,0.1419749769128793
2.0488908290863037,1.3992750001047243,0.04504968459293873,1.6029802286782218,1.55,-0.08,1.46,-0.11388575497011649,0.04679041820644781,-0.15072499989527577,0.12504968459293875,0.1429802286782218
2.112884044647217,1.3992290090937503,0.04645621713529268,1.6039854317576505,1.55,-0.08,1.46,-0.11393030777780151,0.04710350357199074,-0.1507709909062498,0.12645621713529268,0.14398543175765055
2.176884889602661,1.3991815985194227,0.04786287041781497,1.6049907546793283,1.55,-0.09,1.46,-0.11397616056393242,0.04917590032351894,-0.15081840148057735,0.13786287041781498,0.14499075467932832
2.240878105163574,1.3991327797330588,0.04926930765135548,1.605995957758757,1.55,-0.09,1.46,-0.11402330235016675,0.049488949723615006,-0.15086722026694122,0.13926930765135548,0.14599595775875707
2.3048763275146484,1.3990825432310894,0.050675805134466186,1.6070012394846618,1.55,-0.1,1.46,-0.11407174231796578,0.051561297044188395,-0.15091745676891066,0.15067580513446618,0.14700123948466182
2.3688673973083496,1.3990308986800675,0.05208209422097999,1.608006408858458,1.55,-0.1,1.45,-0.11415498774242129,0.05252632300465345,-0.15096910131993257,0.15208209422097999,0.15800640885845807
2.4328725337982178,1.3989778287778827,0.05348863980249722,1.6090117991914008,1.55,-0.11,1.45,-0.11420624058399376,0.05459856485516334,-0.15102217122211736,0.16348863980249723,0.15901179919140085
2.4968678951263428,1.3989233532044418,0.054894916515465124,1.6100170359764623,1.55,-0.11,1.45,-0.11425877994010164,0.054911446957845236,-0.1510766467955582,0.16489491651546512,0.16001703597646233
2.5608718395233154,1.398867456427007,0.05630132635592038,1.6110224075840538,1.55,-0.12,1.45,-0.1143126207933383,0.056983642524927304,-0.1511325435729931,0.17630132635592038,0.16102240758405384
2.6248512268066406,1.3988101679737224,0.05770713970841025,1.612027393449406,1.55,-0.12,1.44,-0.114404295265915,0.0579469558957181,-0.15118983202627767,0.17770713970841023,0.1720273934494061
2.6888444423675537,1.3987514538868722,0.059113198605397294,1.6130325965288348,1.55,-0.13,1.44,-0.11446093292497932,0.06001894672508253,-0.15124854611312788,0.1891131986053973,0.17303259652883485
2.752890110015869,1.3986912765920123,0.06052035017583936,1.6140386235237258,1.55,-0.13,1.44,-0.11451891249749856,0.06033187995981362,-0.15130872340798773,0.19052035017583935,0.1740386235237259
2.8168392181396484,1.3986297776224295,0.06192531911773669,1.6150431337651523,1.55,-0.14,1.44,-0.11457809768922375,0.06240361099397307,-0.15137022237757058,0.2019253191177367,0.17504313376515235
2.88085675239563,1.3985667993080584,0.06333172880328593,1.6160487188417498,1.55,-0.14,1.44,-0.11463864028190368,0.06271636183234648,-0.15143320069194166,0.20333172880328593,0.17604871884174988
2.944854259490967,1.3985024271267927,0.06473763449856439,1.6170539893324438,1.56,-0.15,1.44,-0.1237004580300606,0.06478828377620595,-0.16149757287320732,0.21473763449856437,0.17705398933244387
3.0088865756988525,1.3984366054966277,0.06614423940955984,1.6180598066033989,1.56,-0.15,1.44,-0.12376360428811847,0.06510106060640987,-0.16156339450337232,0.21614423940955985,0.17805980660339893
3.0728065967559814,1.3983694882650224,0.06754831078139122,1.6190638599462508,1.56,-0.16,1.43,-0.12386818098947461,0.06782114479913406,-0.16163051173497767,0.2275483107813912,0.18906385994625086
3.136810064315796,1.3983008709227875,0.06895414691353745,1.6200692240637018,1.56,-0.16,1.43,-0.12393410268840802,0.0681336115539312,-0.1616991290772125,0.22895414691353744,0.19006922406370186
3.2008001804351807,1.3982308549943936,0.07035962010732573,1.6210743784572168,1.56,-0.17,1.43,-0.1240013040663987,0.07020528016065307,-0.16176914500560646,0.24035962010732576,0.19107437845721686
3.2647976875305176,1.3981594180523254,0.0717651845366726,1.6220796489479106,1.56,-0.17,1.43,-0.12406980665816116,0.07051766779207023,-0.1618405819476747,0.24176518453667262,0.19207964894791063
3.3287746906280518,1.3980865917405971,0.07317022615217679,1.6230845973625603,1.56,-0.18,1.43,-0.12413958013837449,0.07258922175019338,-0.16191340825940292,0.25317022615217677,0.19308459736256034
3.392815351486206,1.3980122789005835,0.0745765917912357,1.6240905457109753,1.56,-0.18,1.42,-0.1242542109875646,0.07354846863312728,-0.1619877210994165,0.2545765917912357,0.2040905457109754
3.4567904472351074,1.3979366296208144,0.07598144223689016,1.6250954641650626,1.56,-0.19,1.42,-0.12432678522679924,0.07561982992252034,-0.1620633703791856,0.26598144223689013,0.20509546416506264
3.5207765102386475,1.397859555287748,0.07738645676563434,1.6261005548923828,1.56,-0.19,1.42,-0.12440066453185243,0.07593192574914477,-0.16214044471225209,0.26738645676563433,0.20610055489238288
3.584775686264038,1.3977810525973837,0.0787916810313733,1.6271058515985686,1.56,-0.2,1.42,-0.12447585203536592,0.078003350020461,-0.16221894740261633,0.2787916810313733,0.20710585159856865
3.6487696170806885,1.3977011438871356,0.08019671050979651,1.6281110659132083,1.56,-0.2,1.42,-0.12455232633220299,0.07831542910851567,-0.16229885611286443,0.28019671050979655,0.20811106591320838
3.7127718925476074,1.3976198121656032,0.08160184214944942,1.6291164113053078,1.56,-0.21,1.42,-0.12463010367921581,0.08038681274153074,-0.1623801878343969,0.2916018421494494,0.2091164113053079
3.776761054992676,1.397537084940427,0.08300660344944624,1.6301215507185418,1.56,-0.21,1.42,-0.12470915777736488,0.08069881220212163,-0.1624629150595731,0.29300660344944623,0.21012155071854188
3.8407585620880127,1.3974529347119011,0.08441146406202542,1.6311268212092356,1.56,-0.22,1.42,-0.12478951491170312,0.08277011557385294,-0.16254706528809892,0.3044114640620254,0.21112682120923565
3.9047656059265137,1.3973673594056861,0.0858164487005831,1.6321322415027406,1.56,-0.22,1.42,-0.12487117703966716,0.08308214456920242,-0.16263264059431393,0.3058164487005831,0.21213224150274068
3.9687488079071045,1.3972804042078035,0.08722082329855173,1.6331372872892176,1.56,-0.23,1.42,-0.1249541010599085,0.08515331993682335,-0.16271959579219653,0.3172208232985517,0.21313728728921766
4.032740592956543,1.3971920256446293,0.08862529816625338,1.6341424678982246,1.56,-0.23,1.41,-0.1250861353979223,0.08610916937015198,-0.16280797435537075,0.3186252981662534,0.22414246789822467
4.0967419147491455,1.397102221888723,0.09002989277786132,1.635147798310043,1.56,-0.24,1.41,-0.1251718836480494,0.08818022901856865,-0.16289777811127704,0.3300298927778613,0.22514779831004317
4.160870552062988,1.3970108232372829,0.0914371902340021,1.6361551285893925,1.57,-0.24,1.41,-0.13425909883095988,0.08849258598265831,-0.1729891767627172,0.3314371902340021,0.22615512858939257
4.224740028381348,1.3969183849669882,0.09283870820525987,1.6371583879773444,1.57,-0.25,1.41,-0.13434725125557542,0.09056294137052251,-0.1730816150330119,0.34283870820525986,0.22715838797734444
4.28873872756958,1.3968243493632417,0.09424296804513621,1.6381636771933896,1.57,-0.25,1.41,-0.1344368729430433,0.0908746027363862,-0.17317565063675833,0.3442429680451362,0.2281636771933897
4.35274863243103,1.396728885284308,0.09564737849232322,1.6391691424277384,1.57,-0.26,1.41,-0.13452780278592613,0.09294557871266032,-0.173271114715692,0.3556473784923232,0.22916914242773845
4.416720628738403,1.3966320669587406,0.09705086059667471,1.6401740121959119,1.57,-0.26,1.41,-0.13461997011412205,0.09325704608009446,-0.17336793304125941,0.35705086059667474,0.23017401219591194
4.480711460113525,1.3965338092367674,0.09845465788191049,1.6411791778246378,1.57,-0.27,1.41,-0.13471345601005494,0.0953278645841403,-0.17346619076323266,0.3684546578819105,0.23117917782463793
4.544698715209961,1.3964341461255347,0.09985827724654898,1.6421842872773094,1.57,-0.27,1.41,-0.13480822809989376,0.09563934102130202,-0.17356585387446533,0.369858277246549,0.23218428727730944
4.608701944351196,1.396333046865166,0.10126214609735443,1.64318964764969,1.57,-0.28,1.41,-0.1349043156193603,0.0977101540061017,-0.17366695313483405,0.3812621460973544,0.2331896476496902
4.672693729400635,1.3962305547175657,0.102665661606394,1.6441948282586971,1.57,-0.28,1.41,-0.13500167744589073,0.09802158599674751,-0.17376944528243432,0.38266566160639404,0.2341948282586972
4.736687421798706,1.3961266487174386,0.10406911521202339,1.6452000388282666,1.57,-0.29,1.4,-0.13515264955495038,0.10073307651478673,-0.17387335128256143,0.39406911521202337,0.2452000388282667
4.800731182098389,1.3960212490528392,0.10547356158275062,1.6462060358625952,1.57,-0.3,1.4,-0.13525289042129857,0.1028038273070966,-0.17397875094716087,0.4054735615827506,0.24620603586259526
4.864681720733643,1.395914593075145,0.10687585714206974,1.6472105685744434,1.57,-0.3,1.4,-0.13535427567409786,0.10311479788057143,-0.17408540692485497,0.40687585714206975,0.24721056857444346
4.928683042526245,1.395806442125902,0.10827915828926186,1.6482158989862619,1.57,-0.31,1.4,-0.13545703222732242,0.10518527197603653,-0.17419355787409807,0.4182791582892619,0.24821589898626195
4.992679595947266,1.395696888665588,0.10968224546022484,1.6492211544966744,1.57,-0.31,1.4,-0.13556107217927027,0.10549639537072024,-0.174303111334412,0.4196822454602248,0.24922115449667448
5.056671857833862,1.3955859322881476,0.11108512771483686,1.6502263425958221,1.57,-0.32,1.4,-0.13566639592586535,0.10756675384801258,-0.17441406771185242,0.43108512771483687,0.2502263425958222
5.120663166046143,1.3954735674915533,0.11248787682411295,1.6512315157146886,1.57,-0.32,1.4,-0.13577300869571757,0.1078777795513593,-0.1745264325084468,0.43248787682411294,0.2512315157146887
5.1846535205841064,1.3953597944523763,0.11389049137580318,1.6522366738532739,1.57,-0.33,1.4,-0.13588091032340882,0.10994805594015689,-0.17464020554762372,0.44389049137580316,0.252236673853274
5.248650312423706,1.3952445999634029,0.1152931319418616,1.653241933108757,1.58,-0.33,1.4,-0.14499011332857273,0.11025903484257144,-0.18475540003659718,0.4452931319418616,0.253241933108757
5.3126466274261475,1.3951279963895273,0.11669564554919203,1.6542471848740994,1.58,-0.34,1.4,-0.14510060598298968,0.11232926611342864,-0.18487200361047273,0.45669564554919206,0.2542471848740995
5.37664794921875,1.3950099737075263,0.11809815094457067,1.6552525152859179,1.58,-0.34,1.39,-0.14526898617289769,0.11327770756908341,-0.18499002629247374,0.4580981509445707,0.265252515285918
5.440646409988403,1.3948905464745316,0.11950047429187186,1.6562578007568929,1.58,-0.35,1.39,-0.14538227692077765,0.1153477029316002,-0.18510945352546848,0.4695004742918718,0.266257800756893
5.504632234573364,1.394769733564625,0.12090240002607423,1.6572628877391429,1.58,-0.35,1.39,-0.1454968350662132,0.11565830628316488,-0.1852302664353751,0.4709024000260742,0.267262887739143
5.568636417388916,1.3946474763897012,0.12230460579977365,1.6582682630918046,1.58,-0.36,1.39,-0.14561271615782548,0.11772825153135798,-0.18535252361029886,0.48230460579977363,0.26826826309180474
