time,x_r,y_r,theta_r,x,y,theta,v,omega,x_e,y_e,theta_e
0,-1.7,-5.467617008900564e-16,-1.5707963267948966,-0.17,1.51,0.08,-1.3812680100632864,-0.8361724276456066,-1.53,-1.5100000000000005,-1.6507963267948966
0.06504201889038086,-1.6999964509955297,0.003473701570958298,4.710345625097483,-0.17,1.51,0.08,-1.3813735875741513,-0.8346617691393119,-1.5299964509955297,-1.5065262984290417,4.630345625097483
0.1290297508239746,-1.69998603317172,0.006891082721874316,4.708335391211859,-0.17,1.51,0.08,-1.3814712022035418,-0.8331749527969087,-1.52998603317172,-1.5031089172781258,4.628335391211859
0.19302678108215332,-1.6999687426268708,0.010308932612846017,4.706324865210752,-0.17,1.51,0.08,-1.3815626288081888,-0.8316872869847349,-1.5299687426268709,-1.499691067387154,4.626324865210752
0.2570323944091797,-1.6999445767441137,0.013727199214570508,4.704314069564585,-0.17,1.51,0.08,-1.38164786339702,-0.8301987940786824,-1.5299445767441138,-1.4962728007854296,4.624314069564585
0.32101893424987793,-1.6999135477526603,0.017144391705830674,4.702303873129663,-0.17,1.51,0.08,-1.3817268703212924,-0.8287101234193873,-1.5299135477526604,-1.4928556082941693,4.622303873129663
0.38501524925231934,-1.6998756432859286,0.020562036943126156,4.700293369598979,-0.17,1.51,0.08,-1.3817996862342314,-0.8272206099855857,-1.5298756432859286,-1.489437963056874,4.620293369598979
0.44901418685913086,-1.6998308657368946,0.02397973911783204,4.698282783676747,-0.17,1.51,0.08,-1.381866300900599,-0.8257304260950807,-1.5298308657368946,-1.486020260882168,4.618282783676747
0.5130062103271484,-1.6997792226501658,0.027396975139562064,4.696272414968593,-0.17,1.51,0.08,-1.3819267047486723,-0.8242397998902845,-1.5297792226501659,-1.482603024860438,4.616272414968593
0.5770008563995361,-1.6997207072292309,0.030814240476816163,4.694261963868891,-0.17,1.51,0.08,-1.381980907160347,-0.8227485153087412,-1.529720707229231,-1.4791857595231839,4.614261963868891
0.6409971714019775,-1.6996553198915385,0.03423147038021473,4.692251460338207,-0.17,1.51,0.08,-1.3820289064847189,-0.8212566005419468,-1.5296553198915386,-1.4757685296197853,4.612251460338207
0.7049894332885742,-1.6995830671317083,0.03764834550382305,4.690241084139911,-0.17,1.51,0.08,-1.3820706985827895,-0.8197641950479498,-1.5295830671317083,-1.472351654496177,4.610241084139911
0.7691187858581543,-1.699503768442028,0.041072387943059695,4.688226401110791,-0.17,1.51,0.08,-1.3821063561022329,-0.8182680113490033,-1.529503768442028,-1.4689276120569403,4.608226401110791
0.8330121040344238,-1.699417901461471,0.04448366208272799,4.686219133320831,-0.17,1.51,0.08,-1.3821356858245386,-0.8167767620914469,-1.529417901461471,-1.465516337917272,4.606219133320831
0.8969993591308594,-1.699325045967439,0.04789977189675957,4.684208914415487,-0.17,1.51,0.08,-1.3821588597707104,-0.8152827537935363,-1.529325045967439,-1.4621002281032405,4.604208914415487
0.9610245227813721,-1.6992252624223965,0.05131771181120453,4.682197504577794,-0.17,1.51,0.08,-1.3821758383878648,-0.8137872989241374,-1.5292252624223965,-1.4586822881887955,4.602197504577794
1.0249710083007812,-1.6991187394928173,0.0547312443156475,4.680188566486487,-0.17,1.51,0.08,-1.382186596619053,-0.8122931272048463,-1.5291187394928174,-1.4552687556843524,4.600188566486487
1.0889661312103271,-1.699005270361125,0.05814715199492361,4.678178100406505,-0.17,1.51,0.08,-1.3821911602089114,-0.8107972702168116,-1.529005270361125,-1.4518528480050763,4.598178100406505
1.1529614925384521,-1.6988849334357425,0.061562837369897414,4.676167626836383,-0.17,1.51,0.08,-1.3821895185806474,-0.8093008646799725,-1.5288849334357426,-1.4484371626301027,4.596167626836383
1.2169625759124756,-1.698757717932276,0.06497857928214083,4.674156973502887,-0.17,1.51,0.08,-1.3821816707332792,-0.8078037883440979,-1.528757717932276,-1.445021420717859,4.594156973502887
1.2809536457061768,-1.698623656333446,0.06839352414077272,4.672146634755294,-0.17,1.51,0.08,-1.3821676192522256,-0.8063064153922204,-1.528623656333446,-1.4416064758592273,4.592146634755294
1.3449432849884033,-1.6984827330412917,0.07180811625843045,4.670136340948545,-0.17,1.51,0.08,-1.3821473639740105,-0.804808551176995,-1.5284827330412918,-1.4381918837415695,4.590136340948545
1.408935785293579,-1.6983349389440046,0.0752225708286061,4.668125957260109,-0.17,1.51,0.08,-1.3821209034140116,-0.8033101012787704,-1.5283349389440046,-1.434777429171394,4.588125957260109
1.4729273319244385,-1.6981802831422332,0.07863667049770287,4.666115603532235,-0.17,1.51,0.08,-1.3820882389791351,-0.8018111610553379,-1.5281802831422333,-1.4313633295022972,4.586115603532235
1.536928415298462,-1.6980187395267574,0.08205096109103008,4.664104950198739,-0.17,1.51,0.08,-1.3820493641982978,-0.8003114907353279,-1.5280187395267575,-1.42794903890897,4.584104950198739
1.6009211540222168,-1.6978503536926732,0.08546447487502597,4.662094559020163,-0.17,1.51,0.08,-1.3820042899165457,-0.798811515361544,-1.5278503536926733,-1.424535525124974,4.582094559020163
1.664921522140503,-1.6976750844028505,0.08887805014610776,4.660083928157089,-0.17,1.51,0.08,-1.381953005168561,-0.7973108665783645,-1.5276750844028506,-1.4211219498538923,4.580083928157089
1.7289440631866455,-1.697492887743188,0.09229244856049845,4.658072600710941,-0.17,1.51,0.08,-1.3818954941730086,-0.795809209100942,-1.5274928877431881,-1.4177075514395017,4.578072600710941
1.7929105758666992,-1.6973039924417272,0.09570348604608565,4.656063033447827,-0.17,1.51,0.08,-1.3818318323332717,-0.7943083836033901,-1.5273039924417273,-1.4142965139539143,4.576063033447827
1.856910228729248,-1.6971081396254535,0.09911590395608583,4.654052425055174,-0.17,1.51,0.08,-1.3817619344913177,-0.7928063042802349,-1.5271081396254536,-1.4108840960439142,4.574052425055174
1.9209051132202148,-1.696905441532537,0.10252766698440358,4.652041966465333,-0.17,1.51,0.08,-1.3816858382067596,-0.7913038666032892,-1.5269054415325372,-1.4074723330155965,4.572041966465333
1.9849026203155518,-1.6966958759171167,0.10593915539519723,4.650031425483945,-0.17,1.51,0.08,-1.381603535310615,-0.7898009031481971,-1.5266958759171168,-1.4040608446048028,4.570031425483945
2.0488944053649902,-1.6964794714497569,0.10934991060605988,4.648021064265931,-0.17,1.51,0.08,-1.3815150373176581,-0.7882976159947566,-1.526479471449757,-1.4006500893939402,4.568021064265931
2.112888813018799,-1.6962562012838256,0.11276036363086868,4.646010620656371,-0.17,1.51,0.08,-1.3814203334959123,-0.7867938152209979,-1.5262562012838257,-1.3972396363691313,4.566010620656371
2.1768808364868164,-1.6960260837515582,0.11617023385683906,4.644000251948216,-0.17,1.51,0.08,-1.3813194316028985,-0.7852896245563465,-1.5260260837515582,-1.393829766143161,4.564000251948216
2.2408828735351562,-1.695789073974375,0.11958016804274639,4.641989568654157,-0.17,1.51,0.08,-1.3812123113887649,-0.7837847585814215,-1.5257890739743751,-1.3904198319572536,4.561989568654157
2.3048431873321533,-1.695545369593419,0.1229873963067596,4.639980196134698,-0.17,1.51,0.08,-1.381099064486643,-0.7822804401763297,-1.5255453695934191,-1.3870126036932404,4.559980196134698
2.368867874145508,-1.6952945637031076,0.12639755645853948,4.637968801277286,-0.17,1.51,0.08,-1.3809795002104757,-0.7807741798596297,-1.5252945637031077,-1.3836024435414604,4.557968801277286
